id/title	Gene symbol	Gene ID	PC9	PC7	PC14	A549	LU65	LK2	H69	N231	LU135	SBC3	RERF LC-KJ	RERF LC-MS	RERF-LC-AI	PC-1	PC-3	PC-6	PC-10	Lu130	Lu139	Lu165	ABC-1	EBC-1	LC2/ad	LC1/sq	LC-1F	SQ-5	QG-56	MS-1	SBC-5
geo_accession	na	na	GSM94303	GSM94304	GSM94305	GSM94306	GSM94307	GSM94308	GSM94309	GSM94310	GSM94311	GSM94312	GSM94313	GSM94314	GSM94315	GSM94316	GSM94317	GSM94318	GSM94319	GSM94320	GSM94321	GSM94322	GSM94323	GSM94324	GSM94325	GSM94326	GSM94327	GSM94328	GSM94329	GSM94330	GSM94331
characteristics_ch1	na	na	adenocarcinoma cell line(Non-small)	adenocarcinoma cell line(Non-small)	adenocarcinoma cell line(Non-small)	adenocarcinoma cell line(Non-small)	adenocarcinoma cell line(Non-small)	squamous cell cancer cell line	small cell cancer cell line	small cell cancer cell line	small cell cancer cell line	small cell cancer cell line	adenocarcinoma cell line(Non-small)	adenocarcinoma cell line(Non-small)	squamous cell cancer cell line	squamous cell cancer cell line	adenocarcinoma cell line(Non-small)	small cell cancer cell line	squamous cell cancer cell line	small cell cancer cell line	small cell cancer cell line	small cell cancer cell line	adenocarcinoma cell line(Non-small)	squamous cell cancer cell line	adenocarcinoma cell line(Non-small)	squamous cell cancer cell line	squamous cell cancer cell line	squamous cell cancer cell line	squamous cell cancer cell line	small cell cancer cell line	small cell cancer cell line
1007_s_at	MIR4640///DDR1	100616237///780	1820.6	975	1023.2	1191	892.7	481.2	547	340.4	695.1	406.4	957.9	2607.6	880.1	1595.6	1099.8	874.2	3073.3	2369.4	699.8	694	3771.2	6459.4	2919.8	5069.3	7192.3	1176.4	6033.4	1704.9	2089.2
1053_at	RFC2	5982	736.1	699.4	726.2	539.4	835.1	726.4	810.5	682.6	554.9	702.9	292.5	265	542.8	282.9	864.1	506.6	794.5	764.9	472.4	860.1	737.4	756.5	575.3	740.7	490	685.7	1087.2	658.9	347.3
117_at	HSPA6	3310	120.6	88.2	101.5	120.3	141.4	218.1	45.3	66.3	84.8	79.3	90.5	330.7	24.5	20.5	35.5	88.4	189.4	38.9	100.9	74.9	104.6	1431.7	131.3	23.9	50.4	188.4	127	91.5	139.9
121_at	PAX8	7849	1108.9	759.2	627	940.1	889.4	967.6	682.2	846.6	833	882.3	652.5	761.1	841.6	1172.9	878.2	757.4	674.2	1044.2	700.1	762.7	788.7	1320.3	1025.6	883.1	1013.7	1027.5	828.5	985.2	1776.3
1255_g_at	GUCA1A	2978	16.9	34.3	28.7	28.6	7.6	44.4	66.3	27.3	55.2	37.5	29.2	55.7	54.8	54.2	27.6	38.3	46.2	54.6	34.3	31.8	33.8	62.7	27.8	37.8	59.5	41.7	43.7	45.1	80.2
1294_at	MIR5193///UBA7	100847079///7318	259.9	129.7	132.4	163.6	286.3	127	119.6	153	135.6	201.6	123.8	510.1	280.2	93.5	106.5	138.2	145.2	172.3	121.6	198.2	100.1	229.4	308.8	198.9	164	180.6	158.1	116.3	219.5
1316_at	THRA	7067	49.6	51.5	53.7	80.5	57.8	101.4	77.5	77.8	58.5	57.5	68.2	102	61.8	181.6	130.8	111.2	62.8	141.6	116.8	114.7	56.6	102.1	64.3	63.1	96.6	129.1	65.7	127.6	161
1320_at	PTPN21	11099	21.8	35.8	89.7	77.8	74.2	17.3	31.3	14.2	36.5	13.5	106.9	90.6	154.7	80.7	12.4	15.9	117.6	97.7	9.7	17	130.4	27.2	19.5	95.4	106.4	79.7	86.8	110.1	21.9
1405_i_at	CCL5	6352	5.1	4.5	12.1	4.1	1940.7	5.8	1.7	3.6	3.8	15.5	161.5	40.4	66.8	5.5	2.9	2	3.4	3.5	2.4	4.2	6.4	4.4	3.8	11	8.7	7.1	68.5	6.4	5.5
1431_at	CYP2E1	1571	41.7	7	14.6	25.4	33.1	48.8	12.8	47.9	39.6	29.2	51.3	38.6	95.8	168.3	43.7	93.4	27.5	11.2	54.3	27.9	44.8	66.2	43.7	34.3	46.5	88.8	48.8	26.9	156.8
1438_at	EPHB3	2049	22.6	70.2	79.5	39.3	16.6	110.8	118.5	65.8	59.2	63	45.8	122.3	62.6	105.1	67.6	23.3	800.4	146.1	117.6	20.3	441.4	157.7	428	995.5	493.6	64.7	109	33.2	506.8
1487_at	ESRRA	2101	699.5	1118.7	421.1	615.9	495	524.4	433.1	558.4	530.4	901.1	784.3	438.1	495	570.7	557	716	751.6	449.6	636.2	702.2	686.9	1668.4	678.5	701.3	794.8	929.5	1049.2	772.2	703.6
1494_f_at	CYP2A6	1548	197.7	166.2	125.7	206.6	136.8	230.2	150.4	220.7	200.8	155.2	118	189.2	234.8	302.9	137	161.3	146.2	264.5	153.2	193.3	214.3	283.7	205.7	219.2	231.5	206.7	293.7	211.6	343.7
1598_g_at	GAS6	2621	1603.9	616.6	631	521	876.8	586.2	430.8	482.6	1933.3	495.3	523.1	2037.2	2363.5	1005.9	473.4	1614.5	2852.6	1363.8	713	895.8	389.4	1980.1	887.5	1041.2	722	1705.6	692.4	1908.7	2772.1
160020_at	MMP14	4323	310.6	219.2	2147.7	238.1	307.5	509.4	232.8	233.1	299.3	374.7	239.9	681.6	888	416.6	315.7	620.9	1260.5	301.3	261	572.2	336.9	2901.1	433.4	437.4	262.5	574.4	895.6	404.2	1815.9
1729_at	TRADD	8717	497	353	288.2	346.3	474.3	200.3	67.2	45.5	69.4	194.4	352.9	482.4	565.5	264.8	304.1	363.4	267.5	131.2	79.2	190.8	212.3	1504	458.8	570.7	514.7	503.4	855.1	245.6	960.6
1773_at	CHURC1-FNTB///FNTB	100529261///2342	323	178.1	267.4	480	230.9	192.3	388.6	215	288.6	326.2	280.2	160.4	167	216.4	166.9	203.9	240.6	281.3	203.1	177.9	362.8	251.2	353.4	204.8	258.8	180.5	244.1	262.7	237.6
177_at	PLD1	5337	160	67.9	64.3	91.1	108.7	71.7	55.8	29.4	42.9	55.6	276.7	272.6	192.1	209.2	73.8	29.2	169.5	45.6	29.3	57.7	270.9	178.9	84.7	166.4	210.6	178.3	200.1	115.1	230.3
179_at	DTX2P1-UPK3BP1-PMS2P11	441263	1037.7	1005	809.1	939.7	942.4	587.7	823	786.7	753.2	569.7	909.9	757.1	688.4	968.7	1089.3	490.9	1151	1003	769.6	788.8	874.6	1343.4	1164.5	1058.2	880.8	725.8	1340.4	949.6	1303
1861_at	BAD	572	431.7	397.5	479.6	390	284.7	307.9	393.6	234.1	366.1	254.5	199.6	316.6	410.7	384.3	478.1	270	328.3	496.2	228.6	198.1	287.7	359.6	333.4	384.5	295.8	388.2	360.3	152.7	624.7
200000_s_at	PRPF8	10594	1582	2565.6	2880.2	3755.1	2867.9	2250.4	1831.6	2040.2	2855.9	482.6	1978.7	2192.1	2707.1	1697.7	1882.9	2355	2302.6	2139.3	3358.9	3045.6	3310	2244.2	1229	2919.2	2300.6	1558.2	1658.9	3151.9	1028.1
200001_at	CAPNS1	826	6768.7	4477.8	5574	9440.2	3775.3	1990	5804.4	5712.4	3849.7	2750.6	6446.4	4182.7	4160.6	2801.4	3337.8	3291.8	5580.7	3036.3	2912.9	1632.6	6745.4	11394	7491.6	5139.9	3185.1	783.1	4396.7	1675.9	5221.9
200002_at	RPL35	11224	17241	15563	16475	12683	19728	19734	16331	15576	15645	19136	10747	18201	12576	19008	13776	19358	15495	10977	12061	15017	10612	18407	17060	9647	6823.8	22110	16202	14582	21717
200003_s_at	MIR6805///RPL28	102465483///6158	13035	15557	14201	13965	21754	7769.4	12222	13123	14901	10902	17248	16568	6646.1	20040	11587	21620	13834	4932.7	12161	14407	12522	23047	18117	10814	15468	17724	10148	8123.4	31734
200004_at	EIF4G2	1982	4543.9	8097.9	7371.9	9141.9	7362.5	8509.6	8023.5	9036.4	8498.3	8721	6775.4	4822.1	10881	4897.7	5408	4758.3	7124.7	5476.3	8350.6	7159.1	6564.1	2747.8	8732.3	5404.1	6286.1	5123.1	8390.7	6116.8	2150.5
200005_at	EIF3D	8664	6067.5	2501.4	6241.1	3434.6	6019	4308.3	2909.1	4009.3	6385.4	6821.5	3699.3	4573.1	4540.8	4881.8	3762.2	4573.1	3981	2125.4	2829.5	4861.5	3080.2	3819.6	4143.8	4078	4172.6	3118.9	5497.7	5728.5	3714.8
200006_at	PARK7	11315	7782.9	10310	13268	8954.5	11840	8222.4	6634.7	15649	9605.8	11355	8580.1	8975.7	5360.4	8044.3	9566.8	10465	10122	9508.9	8555.5	8457	7231.1	7652.4	9773.2	8091.6	4250.6	8178.9	9496	10626	9955.8
200007_at	SRP14	6727	6176.3	6272.2	7035.8	5025.9	6823.8	8882.4	9804.2	6190.4	7680	10675	6441.4	6408.4	5907.9	5274.8	7260.4	7145.8	6233.2	7984.5	7694.2	7851.7	5889.8	4442.7	6340.7	5803.6	6237	6267.5	8082.8	8193.9	4724.4
200008_s_at	GDI2	2665	3225.8	1920	2725.3	3363	3827.2	3253.3	3067.4	2437.5	3315.8	3741.3	2908.8	810.1	2554	1788.9	3431.2	2506.5	1376.9	2121.2	2323.2	2668.5	2400.7	1064	2794.5	1390.9	1267.6	2029.4	3109	2291.8	2606.3
200009_at	GDI2	2665	5905.6	4068.9	5226.3	6314.2	7057.4	5733.3	5411	4261.9	5482.8	7245.4	5590.5	2193.9	4296.6	3574.1	6086.1	5660.3	2619.4	3068	4135	4950.3	4556.1	2828.4	5648.1	2458.7	2423	4449.3	6046.1	4781.5	4202.9
200010_at	RPL11	6135	11856	13133	11643	9781.9	15247	13192	8673.4	12210	10244	16327	9714.4	11891	8383.9	15715	11948	17061	11773	5426.1	10915	11641	9080.2	10408	11219	7563.4	6925.4	19172	10706	15962	17150
200011_s_at	ARF3	377	2146.5	2535.2	1994	2207.6	1851.7	1725.2	3003.4	2928.8	1456.7	2231.9	1478.1	1815.5	1766	1265.1	2046.4	2552.6	2241.5	2243.8	2507.1	1938.1	2893.8	3686.8	2739.2	1921.3	2111	1067.5	2460.6	1250.6	1813.5
200012_x_at	RPL21P28///SNORA27///SNORD102///RPL21	100131205///619499///26771///6144	16934	13016	12214	11047	19540	17057	9741.5	14719	14648	17228	15336	17533	10517	20918	12521	22137	14508	10691	12489	16738	12678	13320	14999	11396	15399	23197	16524	21012	13244
200013_at	RPL24	6152	23653	13270	13760	11218	20553	17391	10019	18184	14309	16023	13593	13206	11780	18785	12559	18880	16228	5106.4	11571	10051	9162.5	14277	14466	11464	13060	17917	16795	17276	14421
200014_s_at	HNRNPC	3183	3446.4	4217.9	3962.3	3938.1	4877.5	4274.2	3041.9	2963.6	3213	6327.6	2786.3	2663.9	2702.5	2316.5	3282.1	3384.6	2435.5	1653.1	3618.6	3919.6	3213.3	3006.3	3587.4	3702.7	3272.7	2738.5	3017.9	3014.1	2444.1
200015_s_at	SEPT2	4735	3801.5	3863.5	2637.6	4966.6	4326.7	5955	2693.9	3502.9	4485.5	5848	5308.4	2605.3	6481.8	5454.5	7345.4	5504.4	2563.9	2321	4730.6	5672.6	3939.1	1318.6	2979.9	2669.4	2536.4	3344.7	3208.4	4165.9	2363.7
200016_x_at	HNRNPA1P10///HNRNPA1	664709///3178	11922	14315	13124	13370	16721	13121	14960	15044	14904	17341	14065	11861	9155.1	12259	11523	16526	10767	12345	13571	15387	10030	13422	14278	9936.8	13385	13755	9594.3	14988	12059
200017_at	RPS27A	6233	14656	15299	14396	11513	17002	15382	8008.4	13196	13628	17653	14922	13521	9574.7	21098	15072	17131	13778	6374.9	11002	13634	12427	8894.2	12384	9649.8	14116	17256	11535	11265	15058
200018_at	LOC100508408///SNORD14B///RPS13	100508408///85388///6207	17934	12999	13735	12707	20541	15576	12528	17204	14853	19722	16913	17839	10820	20794	14581	22461	16073	6656.4	14154	18952	12027	14797	17512	11879	15548	22271	16597	17568	19713
200019_s_at	FAU	2197	15694	18700	16307	13133	17076	16904	20281	14098	13966	22713	11501	11813	11419	19710	14428	20968	9472	9521.4	11819	13237	9541.2	21336	13634	9717.5	10002	19886	13866	14358	16172
200020_at	TARDBP	23435	2457.2	3951.5	3385.3	3237.1	2919.4	3511.5	3514.7	3469.3	4281.2	3847.1	2325.3	1795.8	2800.5	3385.7	3184.2	2624.6	4045.7	3300.4	4865	4501.6	3271.1	1182.5	2399.6	2755.6	2821.5	3990.7	2622.5	4498.5	817.6
200021_at	CFL1	1072	21123	18213	16360	16919	22313	18835	18120	19054	17734	17174	16877	20178	19385	19514	16018	24427	16588	24055	15666	18729	13839	24522	22112	18483	18104	20389	20449	15859	19041
200022_at	RPL18	6141	13898	14402	14888	14499	22030	12461	10711	12303	16894	15775	17342	15599	9477	20796	12227	20499	14445	6088.5	10535	13237	11101	17926	14466	12243	12962	15320	12703	9520.1	21005
200023_s_at	EIF3F	8665	3397.3	3299.5	4622.5	5455.3	6961.3	3503.4	3808.6	4075.9	4119	3037	4977.5	5224.4	6405.9	4760.1	4757.2	6571.7	5969.2	1653.2	3151.1	4251.9	3661	5280.4	5947	1778	2739.8	5056.2	4877.4	3490.1	6288.3
200024_at	RPS5	6193	12634	14080	12003	12678	18586	10870	12500	14106	15302	17687	14011	11261	8202.6	13206	7937.6	18438	10356	3685.3	11929	13326	11706	17657	16183	9584.3	13287	18875	11293	11502	22861
200025_s_at	RPL27	6155	14900	17114	14635	13298	19047	19740	15728	18069	14969	19872	16719	17583	12711	22154	14029	26178	14984	12267	14563	19330	11886	18627	19811	15353	17996	23338	19273	21458	19844
200026_at	RPL34	6164	14411	15138	9937	6512.9	22672	17626	8728	10401	12605	21115	12726	18614	9631.8	24542	14782	22882	10003	4649.8	10704	13746	8832.9	8863.6	14378	6481.4	6425.6	15585	11979	9887	8039
200027_at	NARS	4677	4611.3	3878.2	4500.7	3680.1	3247.3	3140.8	6821.4	5142.3	2272.6	4544.8	3934.4	3292.9	2473.5	5578.2	3385.6	4247.9	3187.4	2705.5	4573.4	4562.8	4470.7	3267.5	1849	1889.5	2734.7	3860.3	3301.6	5512.7	3445.9
200028_s_at	STARD7	56910	3292.4	3183	2575.4	1990.7	3505.8	3035	3014.2	4857.1	3144.4	1925.2	1589.4	1534.7	1924.3	2732	4270.2	3436.9	4590.8	1741.4	2453.6	3015.6	2426.8	2003.6	2773.2	4878.9	3448.7	1932.3	1804.7	2679.8	1897.4
200029_at	RPL19	6143	13209	15219	15114	13821	17450	17392	12120	15610	15469	23681	14220	16044	10106	23100	15114	21960	13061	5899.4	15349	17860	10180	15121	16755	10357	14712	18187	14294	19694	16375
200030_s_at	SLC25A3	5250	9952.6	10075	10565	11687	12748	11419	13498	10190	11150	14136	12756	8536	8480	11899	10145	13066	10008	9917.3	12209	15700	10574	14238	9094.7	8159.9	7151.6	15007	12255	12114	12775
200031_s_at	SNORD35B///RPS11	84546///6205	19836	18219	17173	15770	23379	22038	13914	23012	22819	24301	21583	22988	18329	30710	17475	23045	17353	8747.6	17421	22494	16927	26647	22708	17389	20114	22987	16545	16906	27214
200032_s_at	RPL9	6133	18381	17307	15167	13274	23503	16808	15643	18953	17855	21961	17618	21243	14558	24918	16374	23075	17033	7507	14417	19480	11973	19890	20389	9845.8	10671	22132	18200	19059	18082
200033_at	MIR5047///MIR3064///DDX5	100616408///100616387///1655	5794.8	6837.1	5731.1	4477	5973.2	6880.4	5334.2	7976.6	6223.9	5891.2	5506.3	6738.7	5282	4568.1	4691.2	8576.9	4392.1	6842.5	7419.6	5345.9	5042.9	2653.4	6544.8	4820.9	6764.5	4547.5	4959.7	5607.2	2104.7
200034_s_at	RPL6	6128	11935	11737	10292	9621.9	15622	13399	11510	13434	12530	16037	12148	8863.4	9440.2	16359	10859	13701	10559	8172.8	11115	13196	9230.7	10128	10159	9197.6	9593.5	15860	10903	10766	9410.3
200035_at	CTDNEP1	23399	612.5	587.7	1154.1	1624.2	786.9	547	489	515.8	953.1	463.8	1042.7	940	929.2	852.8	831.3	919.7	887.3	771.8	1470.6	1624.6	1115	1550.7	531.4	627.1	478.1	1105	387.8	888.9	1083.9
200036_s_at	RPL10A	4736	9999.9	8733.8	9045.4	6817.3	14334	10674	7525.3	9667.5	10363	14767	8384.6	6601.2	7914.1	17295	10825	14887	7429.1	3956.1	7779.2	10745	7070.7	6396.7	8357.5	6951.5	8029.7	14129	7963.9	9092.6	12070
200037_s_at	CBX3	11335	5108.1	4506.3	2337.8	3224.3	5098.4	5309.4	3231.9	5700.9	5710	6455.3	3410.2	2735.1	4765.5	3964.7	3534.2	4634	5795.5	5603	5519.5	4429.4	5238.9	1955.7	4168.4	2271	3161.1	4662.9	5252.1	4611.6	1678.5
200038_s_at	RPL17-C18orf32///SNORD58C///C18orf32///SNORD58A///SNORD58B///RPL17	100526842///100124516///497661///26791///26790///6139	17402	12447	13836	11081	20243	15069	17886	16760	12226	20805	15001	16868	9003.9	25188	16651	21033	13523	8127.7	13939	17576	11735	7161	10605	8566.3	11724	19570	13324	17881	15544
200039_s_at	PSMB2	5690	6838.1	7486.4	5296.2	3762.3	5943.3	2815.2	4626.3	4469.5	7031.9	7250.8	2741.7	4208.6	4523.1	2586.4	3933.2	4421.1	5918.3	3607.1	5243.3	6647.5	3898.9	4915.5	4326.6	7233.5	4465.5	1319.6	4082	7204.7	3183.8
200040_at	KHDRBS1	10657	2821.4	4980.3	3899.4	3442.1	4885.3	4416.9	4257.3	5156.2	5459.4	3320.3	2821.1	3183.7	3031	4130.4	4504.7	4293.6	3379.6	4167.1	5495.1	6691.9	2848.8	4201.3	3808.7	3280.8	2712	3761	2954.3	4406.2	3097.8
200041_s_at	ATP6V1G2-DDX39B///SNORD84///DDX39B	100532737///692199///7919	4278.7	8704.7	6124.2	4371.6	4900.3	5046.1	6091.3	6392.2	6360	7792.9	4332.8	4855.9	5723.9	4999.6	6165.9	6093.7	5405.8	8728.2	7524.9	7816.4	6531.9	5062.8	5324.8	4098.5	4154.3	4210.3	5310.4	7590.2	4051
200042_at	RTCB	51493	1935.2	1421.1	3559.6	1813.8	2172.9	1759.3	2636.4	2127.6	3048.7	2399.7	1364.5	1099.1	1627.7	1614.5	2405.2	2072	1243.8	996.3	1518.4	1635.3	1172.5	1568.7	1610.6	2610.3	1997.4	1282.8	2755.9	2100.2	1658.5
200043_at	ERH	2079	7669.1	8365.1	8960.1	7834.3	8978.2	6483.1	9737.6	7282.3	9341.8	11839	7299.6	4480.5	5107.8	5389.1	6258.8	6609.2	7957	7430.4	8652.2	9349.6	6685.6	4373.6	7536.5	5037.1	7930.1	7681.9	5632.1	7449.7	3855.6
200044_at	GATC///SRSF9	283459///8683	3451.5	3262.7	3399.9	3192.5	3579.9	4201.7	4928.8	3733.7	5191.8	6412.6	2821	1716.7	2647.3	3608.5	4658	3513.7	2436	4109.2	4498.6	5461.3	2505.3	4001.3	2232.3	2922.6	2989.8	2672	3201.6	2633.5	2877.2
200045_at	ABCF1	23	1468.1	3299.7	3256.1	1613.8	1810.4	1521.2	2141.1	2603.8	3072.7	1161.6	1016	1554.5	1357	2143.5	3378	2119.1	1268.2	2352.8	2222	2054.2	1731.5	1862.5	2935.4	2808.8	2610.4	2006.8	2215.7	3674.8	1932.2
200046_at	DAD1	1603	3733.2	4246.8	6512.1	4804.4	4215	3298.1	4643.4	2645.7	2618	5216.6	5445.9	3303.4	3079.6	2037.8	3714	3946.9	3061	3749.4	2577.6	2922.7	1376.3	2329	4239.7	4161.4	3191	2492.1	3364.6	3374.7	3235.3
200047_s_at	YY1	7528	1836.7	3264.5	2545.9	2809.5	2940	2111.7	3272.2	2427.6	2359.5	2309.1	1936.4	1768.2	2078.7	1628.6	2078.4	2568.2	2453.3	2649.1	3181.3	1606.1	2560.7	3145.9	2919.1	2683.4	2872.4	2361.8	2581.9	1835.6	1225.2
200048_s_at	JTB	10899	4128.2	6425.8	2919.8	5402.9	6369.5	7689.7	4975	6108.5	4540.6	7452.8	5703.9	4084	5509.3	3960.9	3721.9	7758.1	4098.2	3567.2	5289.7	5359.3	6363.5	2708.4	5734.3	5221.4	6893.1	9778.8	3973.3	6731.1	8044
200049_at	KAT7	11143	435.9	612.8	864.4	480.2	359	853.1	1058.3	816.9	761.7	258.1	294.7	353.9	421.1	379	442.3	677.7	230.5	922.2	943.2	832.5	468.1	915.5	773.2	718.8	810	345	348	1016.6	496.4
200050_at	ZNF146	7705	1593.3	2726.4	1380.6	2640.2	1703.9	1535	1769.9	2486.5	2763.2	1841	2774.9	1411.8	1115.4	2328.4	1372.8	2235.3	2499	1744.2	2249.2	1785.3	1992.1	743.4	2248.7	968.3	1956.1	1456.4	1571.5	1102.3	444.8
200051_at	SART1	9092	404.2	543.4	1194.5	491.9	488.2	463.5	457.2	497.5	457.1	186.4	297.5	380.6	400.6	498.4	559.1	485.9	342.9	483	465.7	491.6	432.9	1111	584.7	497.3	383.9	407.2	360.4	337.6	628.3
200052_s_at	ILF2	3608	2503.6	4800.7	4152.6	3650.4	3877.8	5410.3	3748.6	3717.1	4566.3	7216.1	2455.4	2140.5	2908	1928.2	3442.9	4538.6	2323.1	2096.4	4533.7	3773	3454.7	1025.9	2910.4	3593.4	3785.8	2388.5	3021.4	3418.9	1958.3
200053_at	SPAG7	9552	622.1	960.8	1623.3	1482	1611.5	1929.6	619.1	692.2	1804.3	3148.7	1745.6	1174.3	1647.6	1972.1	1614.3	2086.2	1204.4	840.9	1221.5	2055.5	1007.2	1549.4	777.5	1276.1	1360.1	1117.2	1066.7	1520	1816.1
200054_at	ZPR1	8882	508	402.7	742	435.6	405.9	374.8	511.9	547.2	305	877.4	228.8	282.9	507.7	319.2	225.9	506.4	342.8	456	352.3	410.3	366.4	848.1	1036.2	460.7	389.3	311.1	472.1	475.1	409.2
200055_at	TAF10	6881	1557.7	2396.2	2144.8	4032.9	2756.2	1688.8	2637.4	3074.5	1394.9	3945.3	3800.1	2175.7	2748.9	2977.4	1992	3763.3	4723	2756.4	1927.1	1840.4	2540.9	3102.2	3693.4	1253.7	2044.6	3799.5	4363.7	2478.3	3472
200056_s_at	C1D	10438	736.4	995.5	867	586.1	857.4	578.1	380.2	534.3	349.8	689.4	633.6	424.9	397.9	895	1118.9	432.5	399.9	163.9	463.9	287	424.5	148.9	438.7	384.1	470.9	427.6	613.4	275.6	414.2
200057_s_at	NONO	4841	4488.4	5883.5	6571	6336.1	7014.6	6547.7	4227.7	9391	7864.1	5278	7064.9	4981.4	7028.9	7847.8	7091	7148.2	6908.1	8331.1	6085.8	7142.8	4717.9	6569.5	5895.3	7133.4	8004	7382.2	3983.5	9312.3	6118.8
200058_s_at	LOC101929240///SNRNP200	101929240///23020	3302	3648.9	2986.4	2456.4	2594	3582.4	1945.8	4643	3172.8	1190.3	2428.1	3744.5	3342.3	5229.9	6096.1	3370.8	3955.1	3405.9	4378	5475	3485.6	3720	3320.7	3244.8	3282.3	3293.3	2094.1	3986	3829.1
200059_s_at	RHOA	387	7691.7	6619	7502.2	7010.5	9118	5525.3	6005.7	5959.7	6217.3	5344.6	6047.6	7160	5510.2	7354.2	6612.7	7253.3	2922	5417.2	5363.4	6529.6	4992.9	6746.4	7015	4203.7	4442.8	5872.6	6284.4	3509.1	7019.7
200060_s_at	RNPS1	10921	2811.1	3084.2	2632.9	3254.3	3883.4	3324.4	4575.3	5967.4	4268.8	3451.7	3018.7	3001.6	3193.9	2832.8	1919.5	3517.4	3568.7	3394.5	5018.2	5243.8	2971.4	2387.1	2360.2	2887.1	3177.1	4188.9	2268.2	4536.9	2753.4
200061_s_at	RPS24	6229	18450	16427	13813	14300	21578	17374	15574	16608	16522	22126	17521	18104	15455	20779	12986	23625	15812	12684	14451	18001	14912	18295	16913	13141	16195	22151	18439	19442	21236
200062_s_at	RPL30	6156	25125	23325	19580	16476	24543	25141	14134	21209	21404	27980	20689	19906	19431	29825	18665	28638	19058	8770.8	19879	23894	16083	25094	22989	21593	22976	25610	22946	21007	25684
200063_s_at	NPM1	4869	14623	13436	15142	11833	16074	12955	13479	14087	14407	20655	12442	14481	9656.7	13937	11340	16500	10809	9869.3	11367	13213	8806.1	9813.8	12670	8075.8	8513.4	13887	11165	11322	13322
200064_at	HSP90AB1	3326	16427	18678	18015	14024	18189	16770	17314	17774	14852	18012	14994	15413	15284	23320	17063	19651	17052	11852	16049	20401	13607	21600	13264	18057	19914	17779	21269	19818	14195
200065_s_at	MIR3620///ARF1	100500810///375	8761.7	7245.2	5036.3	5857.3	7109.5	6944.2	7421.2	5580.1	5394	7739.5	7157.4	5935.1	4822.8	4616.3	3979	6895.5	7161.6	3938.5	6675.4	7168.7	5236.2	8126.8	6625.4	7497.6	7435.2	7460.5	5639.4	7368.4	11582
200066_at	IK	3550	993	1618.1	2777.2	1090.4	1389.7	1664.8	1147.6	759.9	1080.4	1938.9	1299.8	1476.1	1098.5	1254.3	1134.6	1642.7	907	689.4	1330.9	1564.2	841.1	554.2	1277.2	1598.4	1556.4	1131.9	974.5	1068.4	1079.8
200067_x_at	SNX3	8724	2790.3	1438.5	3371.1	2274.8	2268.5	1748.3	2867.8	1678.2	1707.1	2523.1	1878.8	2100.1	2262.5	2046.3	2847.8	1974.7	1622.7	1403.3	1318.6	1692.5	2472.7	1912.5	1396.8	2085.6	1788	1643.2	2445.5	1685.6	15227
200068_s_at	CANX	821	7075.9	8252.5	7692.9	7779.8	6504.8	7035.7	6443.8	5500.5	4735.9	6272.8	9806.3	10344	7070.2	6827.6	3997.7	10733	6787.1	4471.3	4924.1	5442.4	7133.9	10909	12307	13699	13639	10979	7968.9	6397.6	12832
200069_at	SART3	9733	228.4	548.7	488.3	453.4	599.5	740.4	901.1	610.6	823.5	780.6	411.3	446.6	545.1	770	838.1	742.2	734	1074.8	1115.1	1345.1	651.7	709.6	296.2	457.9	472.2	610.7	315.6	1123.7	215
200070_at	CNPPD1	27013	295.7	424.1	472.6	421.3	593.6	334.7	327	537.5	443.1	340.4	346.5	428.3	537.1	410.9	707.6	487.2	378.1	393.2	309.4	378.5	536.3	586.1	398.5	462.4	304.8	207.9	409	383.5	664.5
200071_at	SMNDC1	10285	627.3	1221.9	1203.2	940.1	1189	728.2	757.9	762.1	1269.8	672.5	1106.7	913.5	701.4	773.7	1021.9	605.4	1164.6	704.5	1024.5	951	917.4	794.3	895.9	914.7	708.5	665.6	762.7	1143	822.8
200072_s_at	HNRNPM	4670	4453.3	6495.8	6106.4	4729.4	6256.6	6866.2	5241	6674.7	7856.6	4310.5	2521.3	2400.2	3758.2	2840.5	4689.1	6055.9	3938.2	3660.4	7432.8	6736.2	5051.8	1168.3	3455.4	5046.4	5457.6	3687.8	5345.7	6727.7	1178.9
200073_s_at	HNRNPD	3184	2164.3	3256.7	3907.5	2647.5	4879	3619.8	4009.4	4617.9	4758.8	1792	1634.1	1530.7	2756.7	1809.9	2621.7	3329.7	2891.1	2374.6	4402.3	4197.5	2491.6	1667.5	2511.2	2005.7	2199.1	2282.2	2058	2828.6	1073.4
200074_s_at	RPL14	9045	11260	5735.5	6697.2	4641.6	11751	8115.8	4441.5	5764.4	8426	11177	5977.8	6738.7	4048.1	13722	6683.2	10318	5470.9	1921.1	5862.6	8758	5462.1	4466.5	4395.4	2836.5	4802.1	12680	5178.3	6436.9	4420.8
200075_s_at	GUK1	2987	2484.1	2016.6	1760.4	1409.7	1937.6	2553.5	1752.7	1881.1	1435.1	4237.4	1205.9	2021	1345.5	1314.1	2007	2262.9	2859.5	1264.1	1629.3	1911.5	1952.8	2046.6	2701.1	2056.5	1553.8	1199.8	1278.6	3156.5	4274.8
200076_s_at	KXD1	79036	1670.8	1594	1959.2	1128.8	1459.8	1289.1	1053.5	1457.2	1211.3	1407.2	890.5	947.4	803.2	2296.7	1206.4	837.4	1000.6	830.3	1029.7	1019	979.3	1066	888.9	1344.9	1693.2	1374	1187	2051.3	1416.6
200077_s_at	OAZ1	4946	10021	12137	10459	8214.3	13791	13327	13345	10818	9941.4	14297	8183.9	10798	9868.6	7904.8	8619.8	11795	8246.4	10927	9088.3	11628	7961.6	13617	9105	10352	10566	11280	13456	9881.7	11704
200078_s_at	ATP6V0B	533	3236.6	7722.1	3209	2308.9	2549.4	4930.1	3966.3	5043	6961.2	5925.3	2106.7	3829.3	2064.4	2483.4	3274.5	2465.2	1855.2	4786.2	3920.1	3103.9	1981.7	4226.5	2519.3	3048.6	2300.3	3453.6	3628.8	5020.9	10464
200079_s_at	KARS	3735	4397.8	4623.3	7163.6	4461.4	5927.8	4456	4459.2	3717.6	4165.3	7863.3	4127.5	3062.5	4489.6	4349.2	6218.1	5143.4	3948.4	2643.3	5657	4996	3223.3	6274.2	3028.9	4342.7	3210.2	3851.8	5289.3	5372.7	1899
200080_s_at	H3F3AP4///H3F3B///H3F3A	440926///3021///3020	4287.2	8198.1	4102.7	6409.3	6650	9010	7746.3	10968	9260	9462.3	7180.2	5498.5	4573.8	6594.1	7410.5	5832.8	8231.1	7434	8454	8019	5523	3911.5	6143	5695.1	5003.4	4490.8	5818.2	4830.9	4482
200081_s_at	RPS6	6194	14814	13023	11802	15296	23680	20065	18050	15286	17622	21715	19597	16062	8672.5	26633	15477	25984	14608	11223	14142	17525	9512.8	7397.3	11216	12090	17893	25897	14403	20387	18820
200082_s_at	RPS7	6201	19744	11954	12545	11762	20440	17768	12704	15261	14327	19642	15754	15735	13080	23227	14106	21033	14673	9152.5	12923	16890	13406	10242	14732	15029	17990	22193	18245	17710	21047
200083_at	USP22	23326	1228.2	1359.8	1823	2808.6	1568.3	2273.8	2153.6	2105.9	3457.9	798.9	1510.4	2103.1	2619.6	1731.1	1723.2	2074.3	1651.6	2686.9	2529.3	1935.3	1461.9	2625.1	1495.2	3419.6	2266.3	1478.6	1102	879.8	2905.3
200084_at	C11orf58	10944	2290	2823.4	3790.9	4300.4	3578.4	2483	4729.6	3850.4	3877	5071.5	3160.4	1695.4	2187.8	2361.9	2849.7	4077	2865.6	2375.7	2760	3087.9	2270.8	1510.6	3617.1	3037.6	3244.2	3533.8	3754.3	2351.6	1069.8
200085_s_at	TCEB2	6923	4852.6	4081	4873.8	5113.9	5155.6	5183.5	6212.2	5753.4	4914.6	9577	3936.3	5456.9	2446.8	4912	6007.7	5430.1	4149.7	2405.4	4518.8	5013.8	2668.1	2973.9	4562.5	3412.1	2881.7	4236.5	5276.5	3345	7991.1
200086_s_at	COX4I1	1327	3594.1	4497.2	4263.6	4228.5	5367.6	4085.7	5403.3	3863.1	5703.1	5609	5713.2	4289.4	2824.2	4420.2	5435.5	4846.6	5036.9	2645.4	4082.2	4846.8	2582.1	6935.1	3176.8	3857.1	3157	2782.3	5499.7	4814.1	5371.2
200087_s_at	TMED2	10959	4552.7	4319.7	4024.2	4244	4482.1	5027	5451.5	3810.1	3665.6	6766.1	5909.6	2603.3	3228.9	3643.7	2265.9	5082.4	4125.9	3611.6	4494.5	5490.8	4032.6	4604.2	5140.9	5002.4	4386.4	6060.8	5015.8	2879.4	5042.4
200088_x_at	NBEAL1///RPL12	65065///6136	20918	20196	19219	14956	25182	24774	19168	18865	15559	21561	16955	23378	16968	29221	14292	28034	19261	8763.2	16912	18643	16285	22575	22356	12859	14030	28122	23534	22851	36401
200089_s_at	SNORD18C///SNORD18B///SNORD18A///SNORD16///RPL4	595100///595099///595098///595097///6124	8126	6648.9	8199.4	8160.1	12882	9452.7	7375.1	7362.4	8409.8	12164	11641	9260.8	6620.5	13376	8556.1	12310	7580.8	4099.5	7241.1	9422.1	5440.8	11301	5798.8	4777.7	6812	15725	8430.4	9940.1	9122.4
200090_at	FNTA	2339	1695.5	7328.4	2387.7	2359.3	2945.7	4095.6	3593.8	1771.1	2883	6171.5	2887.8	2479	2260.6	2245.4	2244.7	5988	2693	3337.5	3646.7	4551.4	3265.1	1231.3	2051.5	2217.5	2417.5	2236.6	2793.6	2513.4	3077.4
200091_s_at	RPS25	6230	7794.4	5752.6	5726.2	4584.2	9199.3	6074.8	5572.4	7039.8	6400.6	10249	6882.2	7009.4	5181.9	8369.5	6000.6	8868	4945.2	2941.3	6547.3	6813.6	4743.4	6444.4	7714.8	3520.8	4601.8	8807.8	4393.3	5265.3	6922.1
200092_s_at	RPL37	6167	20433	16402	13725	11202	18457	19086	13722	16141	14355	18334	14411	16969	11790	21590	14248	21960	16688	13902	10940	13412	14400	14679	15614	11098	11967	23089	14191	13224	13039
200093_s_at	HINT1	3094	4722.8	7022	4686.6	5725.6	5450.2	5149.2	8472.4	5097	7678.8	8580.1	6054.5	7320.4	3785.3	4424.7	5261.2	9115.5	5827.4	4159	4556.3	4279.6	2622.3	3829.4	4661.7	4056	2359.6	4991.7	3428.7	4615.6	2133.6
200094_s_at	EEF2	1938	8627.8	10741	9737.7	6662.4	14431	9340.2	9219	11992	12817	9268.4	9551.1	13247	7424.7	20933	10966	17367	7415.6	3723.4	7249.1	9997.9	6737.6	14074	7283.5	4982.1	6407.4	18297	7925.1	14483	21840
200095_x_at	RPS10	6204	27532	27767	25769	22682	33856	28134	31400	29331	28082	31814	26224	33195	25004	43891	26473	41124	23110	25278	26149	33167	23894	35695	32804	28497	30552	38792	33736	31944	46853
200096_s_at	ATP6V0E1	8992	4984.3	2843.7	3721.6	4188.4	2173.3	2059.8	3573.5	2631.1	1397.6	3193.9	2791.2	3535.2	4010.2	2744.8	2890.6	2649.9	3398.5	1749.4	1676.7	904.2	2120.3	2097.6	5890.3	2736.7	1783.6	1608.3	2782.5	1345.4	2748.2
200097_s_at	HNRNPK	3190	4254.2	4130.9	3251.8	3237.1	4053.1	4290.5	4119.1	4143.8	4680.8	3824.6	3013.6	3168.4	3604.5	3711.1	3630.4	4260.2	3525.4	4014.6	4515	4005.6	3407.6	1501.1	3190.7	2566	2450.9	3402.1	2541	2378.4	1951.3
200098_s_at	ANAPC5	51433	2247	3241.5	2517.2	3078.4	3344.3	2780.8	2920.4	3116	3189.5	5514.3	2594.6	1528.7	2185.1	2072.4	2114.6	3515.1	3212.6	3527.4	3377.6	4036.7	2811	2945.8	1744.7	2439.2	2878.5	2742.7	1929.6	4001.4	2896.6
200099_s_at	SNORD73A///RPS3A	8944///6189	19185	17669	15399	14300	24289	19739	17051	18080	17695	22068	17168	18128	15515	25776	16369	24777	15017	10640	15771	17987	13748	20174	20055	10490	13381	23039	18945	14378	15744
200593_s_at	HNRNPU	3192	2408.8	3462	3347.2	3299.3	3433	4711.4	4095.6	3689.1	4159.8	1796.1	2204.5	1814.6	2506.7	2575.9	2935.4	3203.4	2168.2	1941.8	4806.6	4820.7	3611.8	898.7	2426.2	3700.8	3630.3	2026.4	2882.6	3968.1	1199.7
200594_x_at	HNRNPU	3192	4143.1	6558	5532.9	6488.3	5907.7	6720.3	4795.3	6292	6544.9	2659.8	3947.4	2720.6	3314.7	3910	5244.7	6462.9	3656.5	4687.5	6572.4	6494.7	5457.2	2790.5	4768.4	4345	4210.5	3569.6	5393.8	6070.3	2749.1
200595_s_at	EIF3A	8661	1624	2400.2	2785.8	2996.6	2968.7	2628.2	2037.3	2233.6	3187.6	2049.1	3531.2	2792	2676.3	3768.6	2641.6	2177.4	2885.1	1376.1	2745.5	3554.2	1917.8	1204.1	1904.6	1531.2	1215	2770	1820.8	2501.6	2018.4
200596_s_at	EIF3A	8661	921.1	2352.2	1792.5	2393.5	2081.9	2249.5	1417.2	1443.6	2490.3	1172.1	3656.7	2276.1	2639.8	4358.9	2801.7	1743.2	2757.5	1063	2703	3817.6	2327.8	754.4	1648.2	1349.8	978.8	2526.7	1509.6	3349	2003.8
200597_at	EIF3A	8661	248.3	521.2	488.3	395.1	553.3	503.7	372.9	633.6	868.7	281.7	526.2	417.3	716.3	769.1	492.8	307	416.7	432.4	674	915.2	586.3	301	222.5	286.7	264.3	495.5	218.9	748.8	459.3
200598_s_at	MIR3652///HSP90B1	100500842///7184	3178	1927.8	2691	2450.6	2782.2	3228.9	5221.2	2684.1	1818.5	5300.4	6928.8	2925.4	3335.3	5354	1860.7	4176.8	4621	4216.5	3003.2	3847.9	3996.3	3829.1	2677.2	2223.1	2621.1	15715	2956.2	2011.8	6786.9
200599_s_at	MIR3652///HSP90B1	100500842///7184	7179.2	5685.2	6526.8	6336.4	6626.6	6552.4	11045	9964.5	5232.4	14163	13855	10757	5851.1	12091	6382	10511	11365	10686	8573.2	10591	9707	14288	6345.1	3952.4	5199.2	20391	7094.1	5314	14266
200600_at	MSN	4478	1594.2	26.5	2424.4	3395.6	3718.2	1290.2	29.6	2173.1	2148.4	1066.8	2182.8	2356.2	4367.7	925.8	1252.1	2307.8	5138.6	11.9	678.4	1397.9	6.2	5358.5	675.5	3388.4	1812.5	1223.7	768.6	1982.2	1444.1
200601_at	ACTN4	81	2728.4	760.1	3004	7921.4	1194.7	781.3	867.8	947.8	2705.2	992.5	3679	3876.7	2047.5	586.8	883.6	931.6	2098.1	1771	938.4	1098.7	5016.8	3782	3755	3515.2	1491.5	2040.2	2221.7	538.1	745.6
200602_at	APP	351	628.2	526.2	750.7	975.4	520.3	1204.6	871.5	681.3	2099	666.1	1549.9	2212.8	1957.6	1171	1096.5	700.3	1390.1	791.8	819.9	873.1	1450.6	1464.8	1459.8	723.9	538.5	678.4	743.4	1012.9	826.1
200603_at	PRKAR1A	5573	2440.8	2425.5	1706.8	2151.3	2133.5	1596.6	2844.1	2131.3	2371.8	1988.4	2487.1	2893.7	2194.5	2406.6	2166.9	3100.1	2474.8	2473.2	1771.3	741.2	1668.8	1701	2131.4	1757.7	2291.9	1570.6	1624.8	1103.5	1260.1
200604_s_at	PRKAR1A	5573	2246.1	2014.1	2169.1	1902.7	1639.7	1477.6	2481.3	2714.2	3106.1	2069.9	2177.2	1390.1	1720.1	2557.4	2417	2461.3	2047.7	2963	2335.6	1000.9	885.1	730.3	1842.9	2395.5	3082.1	1282.9	1944.1	1764.5	1132.1
200605_s_at	PRKAR1A	5573	3101.2	2691.4	1920.6	2077.5	2425.9	1914.3	2656.5	2456.9	2476	1654	3200.2	2710.4	2425.2	3400.2	2569.7	3994	2483.5	2407.3	2509.4	1327.5	1337.5	1700.4	3301.7	2665.2	3514.5	1507.2	2358.8	1615.6	1790.4
200606_at	DSP	1832	1196.5	5471.3	1305.2	1206.7	172.7	3724.9	5211.1	4223.3	107.1	253.2	2180.5	1269.9	2042.3	306.7	372.8	2200.8	4928.1	3291.9	993	1658.3	3777.9	2240.1	1502.3	3325.9	1995.1	1455.5	1013.8	51	1083.3
200607_s_at	RAD21	5885	2717.1	3411.4	2385.6	1436.7	2914.4	4676.4	1405.8	2046.6	3080.1	2466.7	1462.4	700.8	2397.4	2344.3	2300.7	2104.9	1694.7	2076.8	3579.6	3265	1636.9	871.5	1607.3	3203.8	2582.5	1534.8	1680.6	1803.5	1073.5
200608_s_at	RAD21	5885	2358.5	2719.4	2042.2	1437	2413.1	2423.4	1439.2	2243.8	2630.6	2438.4	1451.3	1039.1	1952.4	1358.7	1887.5	2135.3	1746	1727.9	2637	2087.6	1545.1	1576.5	1567.2	1892.9	1883	1799.7	1271.5	1283	871.3
200609_s_at	WDR1	9948	2611.8	1667.7	1360.2	3148	2523.1	2158.8	999.4	1609	1825.1	1690.7	2291.4	2263.2	2822.8	1054.5	2288.4	1191.8	1352.6	2231.2	1274	1521.6	2604.6	2688.2	2892.6	1424.5	1081	1444.8	1667.8	1085	1849.8
200610_s_at	NCL	4691	7224.2	8527.1	8649.8	7699.8	11534	9718.8	6429.7	10881	9868.6	9961.1	5462.5	5305.1	6954.6	7127.4	7675.3	9719.2	7518.3	5121.7	9392	9359.7	7061.1	5962.9	6644.4	7597.8	8483.5	7964.5	8689.4	9817.8	3966.6
200611_s_at	WDR1	9948	3989	1654	2812.8	4216.7	3871	3017.5	1795.3	2078.8	2211	3324.7	2443.6	3128.6	3305.3	1310.8	2809.6	1077.1	1575.5	1795.9	1445.6	1617.2	3697.2	1899.2	4149.8	2649.7	1645.5	1328.1	2637.1	988.3	2114.2
200612_s_at	AP2B1	163	1439.6	1593	1925.6	3548.3	956.2	2621.2	1985.4	1656.9	2069.1	644.1	1633	1364.7	1090.6	3370.8	2989.5	1802.7	1341.9	1151	1560.6	1397.4	1165.2	3004.5	2258.7	2070	1707.1	1449.8	2058.5	1676.1	1738.2
200613_at	AP2M1	1173	6937.4	3053	4093.9	3849.8	2735.5	3948.7	4220.5	3020.1	3052.1	4668.5	2151.4	2982	3086.1	1624.7	3596.6	2715.9	6263.6	2302.2	3200.7	2536.4	6132.8	2370.6	3179.1	6912.5	5253.1	1576.7	5778.1	3741.9	4233.1
200614_at	CLTC	1213	7898	10271	10614	10419	6687.9	12723	11574	8128.3	6077.6	2656.7	6771.6	9464.8	3831.5	5104.7	4196.3	9926.3	4201.1	4537.5	7222.2	5618	6603	3819.8	12338	9576.5	9379.8	4800.7	7674.3	7130.6	4394.8
200615_s_at	AP2B1	163	1232.9	1251.3	3709.7	3299.7	1047.6	1866.8	2830.9	1537	1749.1	860.1	1414.1	1109.1	792.1	2424.7	1923.8	1836.8	1567.6	968.6	1443.7	1091.7	639.6	829.5	1688.9	2357.6	1502.6	870.7	2389.4	1048.5	975.5
200616_s_at	MLEC	9761	1603	855.1	1469	1577.5	1746.2	4289.9	2563.3	955.2	1090.5	1708.3	2043.7	963.7	1356.7	1611.8	842.4	3180	1607.2	1389.8	1952.2	2370.6	999.9	2500.9	1603.6	2397.5	1469.2	1906.8	2066	740.9	3252.6
200617_at	MLEC	9761	779.9	858.3	1131.5	1938	846.7	4511.7	1536.2	998.9	938	1290.6	1576.9	1356.9	1441.7	1288	868.4	2872.7	1194.7	1610.8	1516	2498.8	1838.9	5210.3	1539.9	1853.2	1318.6	1620.1	1786.2	991.8	3839.2
200618_at	LASP1	3927	3567.3	1063	1860.5	5966.4	1393.3	2535.9	1617.7	233.5	356.5	713.7	2848.2	2893.2	2912.7	3241.5	4887.4	1914.5	2128.9	981.5	996.4	773.4	4559.6	7254.9	5005.3	2270.9	1551.2	1550.5	3440.9	488.7	2953.2
200619_at	SF3B2	10992	2109.3	2869.5	3764.6	2158.7	2223.3	2075.4	2471.6	1871.1	2246.9	2212.5	1623.6	1420.8	1565.7	1803.5	2586.5	2712.8	1146	2068.2	2268.5	2491.6	1730.5	3480.5	1850.9	1976.2	1467.1	1967.2	1305.6	1921.6	1208.3
200620_at	TMEM59	9528	3655.6	4204.5	3320.4	1445.6	2342	2345.6	4954.4	2956.6	2957	2687.2	2751	5219.9	2668.6	2109.1	2109.7	2631.8	2551.4	3043.6	1876.6	1270.7	3079.4	2661.3	4887	3645.9	2333.6	2590.6	3562.2	3270.8	2321.7
200621_at	CSRP1	1465	1658.5	2103.8	1277	4076.8	1870.5	1419.5	1263.6	1780.7	1378.4	1023.3	2156.2	1901.2	760	843.6	1172.8	221.2	1871	1726.5	689.3	540.3	1313.8	866.9	1225.4	1299.5	1158.3	1132.2	1703.7	381.6	232.4
200622_x_at	CALM3///CALM2///CALM1	808///805///801	689.6	846.5	2777.1	1389	1395.7	626.7	1052.9	823	1318.1	1667.3	1371.1	756.5	1272.4	812.6	1078.5	1113	848.9	1694.5	1090	1378.6	1693.8	841.7	1250.1	1320.9	845	498	824.8	688.3	1165.1
200623_s_at	CALM3///CALM2///CALM1	808///805///801	585.1	1027.1	989.9	1796.3	997	567.2	910.6	2081.4	3091.9	1808.9	1827.4	762.6	2012.7	1254.4	1586.5	1620.9	1321.2	1874.8	1537.3	2147.9	1545.2	1309.6	1000	977	773.7	442.8	1182.2	580.4	1089
200624_s_at	SNHG4///MATR3	724102///9782	3619.6	4959.2	4766.1	3932.6	4513.9	4818.4	5577.9	4432.1	5898.2	5704.7	3230.5	3168.6	3057.8	3723.1	4330.7	5982.3	3449.4	3782.9	4748.9	4335.2	2830	1088.1	3426.1	3501.7	4977.6	4075.2	3346	4801.6	1323
200625_s_at	CAP1	10487	3940.6	3349	4466	3111.9	3575.5	1404.2	1931.5	2381.1	3003.5	5863.1	2475.2	3502.5	3376.7	2059	2963.1	2356.2	3305.5	2659.6	2516	3175.7	1750.9	2039.4	3299	3055.5	2552.4	2089.8	3369.9	2812.3	1448.9
200626_s_at	SNHG4///MATR3	724102///9782	3716.6	4798.1	4335.7	3559.6	4035.9	4963.4	5053.6	4435.2	5490.8	5278.9	3200.6	3626.3	2670.3	3963.7	4450.9	5949.6	3292.4	3780.7	4701.8	3920.9	2920.6	1357.1	3557	3218.3	4055.2	3418	3148	4413.4	1300.6
200627_at	PTGES3	10728	7042.3	8789.8	8052.3	8560.8	8877.8	8281.5	10115	9494.1	7346.8	7596	6696.1	6971.1	5559.8	4529.6	6951.9	7331.2	6975.6	6626.3	8538.8	8368.9	6438.1	5642.9	6772.2	7483	7515.4	5325.5	6723.3	6856.7	4330.6
200628_s_at	WARS	7453	443.4	1084.2	818.9	1145.3	1339.5	693.4	1877.7	1150.1	596.2	1404	652.6	1148.8	818.2	1162.2	496.3	900.4	1336	1301.1	935	1002.7	728.7	2463.3	1172.5	638.8	1027.2	3499.8	776.3	1040.7	1158.8
200629_at	WARS	7453	307.4	1085.2	884	1294.2	2050	837.7	2546	1310.2	498.6	2007.8	729.2	1966.7	659.5	1470.4	437.3	1702.1	1606.9	1157.2	1354.5	964.6	877.5	3073	1878	793.2	1134.6	6132.3	928.7	917.2	1518.1
200630_x_at	SETSIP///SET	646817///6418	5384.9	5439	4907.4	4841.2	5545.7	6355.9	10287	6019.6	4867.4	4301.3	3449	4427.9	5094.1	4402.4	3621	4714.5	4646.7	5670.7	4424.7	4910.6	4814	6412.6	5394.6	5069.3	5138.1	5855.5	7199.5	5909.9	6479.1
200631_s_at	SETSIP///SET	646817///6418	5291.9	7552.9	5975.2	5705.3	6374.5	10481	7927.9	7109.8	6970.6	7426.8	2945.2	4146.3	4308.5	4571.1	4865.7	6514	4701	4624.6	5928.1	6464.8	7593.1	3243	5398.8	3304.7	2348.3	8547.7	4476.1	4456.8	2883.1
200632_s_at	NDRG1	10397	2299.9	1758.1	4380.7	1208.9	4980.7	137.8	1039.4	452.4	235.3	739.7	1385.6	4685.1	1033.5	357.4	196.1	2237.6	4677.6	613	190.4	116.2	1184.3	7907.3	1899	4256.8	968.4	3092.1	3928.9	851.2	2250.7
200633_at	UBB	7314	18479	17778	22993	17340	20597	19454	13155	19565	21554	20934	17276	19340	19530	22091	16339	20709	15067	21060	16099	18994	13777	19897	19939	21853	19061	18523	19901	21242	26832
200634_at	PFN1	5216	8992.1	6008.3	9996	12480	11794	4190.1	4635.4	4048.6	6931.1	7516.5	7433.3	4911	9536.3	3555.1	6564	5901.3	7617.7	4103.5	5749.8	6257.4	4757.9	6530.1	4562.5	8209.7	7169.9	4602.5	8576.7	4956.5	5699.2
200635_s_at	PTPRF	5792	655.7	235.3	373.2	1078.3	126.6	980.4	213.4	93.8	1390.7	138	761.9	2075.1	2072.1	1354.9	998.2	631.5	1439	1334.3	1213.3	1605.7	1616.4	2513.8	1015.1	1037.3	1054.4	1202.6	590.5	1132.5	2038.6
200636_s_at	PTPRF	5792	1435	648.1	838.3	1492.9	306.6	1308.9	645.8	211.1	1818.9	371.6	1161.8	2506.2	1788.7	1660.4	991.4	1252.7	1699.7	1760.3	1260.8	1495.2	1828.6	3735.3	1266.6	1493.4	1413.8	1871.7	1387.7	1280.4	2291.2
200637_s_at	PTPRF	5792	702.5	244.8	440.2	1346.7	109.1	855.4	209.8	113.6	1301.3	134.6	636.4	1763.5	2171.9	1332.7	978.9	552.8	1355.9	1316.2	1032.3	1687.2	1635.6	2084.2	1007.2	1254.9	1262.9	1006.7	868.1	1036.9	2240.9
200638_s_at	YWHAZ	7534	7203.7	9231	9864.5	6177.3	4610.3	5994.1	6596.5	6630.2	7452.1	4616.7	4168.7	3003.4	6134.4	3708	5033.6	5613.8	6294.2	4390.2	5892.9	3833.4	5490.8	3942.6	6304.2	9064	6898.6	2759.4	5846.5	2638.7	3132.3
200639_s_at	YWHAZ	7534	6830.2	8005	7778.2	4355.3	3234.4	3461.1	5183.5	3666.2	5244.2	2869.1	3444.9	2277	3768.7	2715.5	3141.7	3651.3	5206.7	2712.3	4033.1	2477.6	3654	4424.2	5485.8	6045	5802.3	1697.8	3209.2	1621.1	2537.9
200640_at	YWHAZ	7534	8333.6	10863	12128	6424.2	4794	7622.9	7231.8	6327.7	8935.1	4914.3	4850.4	3531.7	5928.1	5758.2	5580.2	5733	8153.8	4808.5	6730.5	4797.4	6537.3	5714.3	7848.1	11201	7396.3	2440.6	5706.5	2916.5	4278.3
200641_s_at	YWHAZ	7534	10973	11790	12514	7113.9	5439.4	8839.6	8090.3	8513	9495.4	5974.8	5672.6	2384.9	5965.8	5321.9	5979.3	6383.1	7549.3	4987.6	7613.8	5487.1	6499.2	3431.6	8738.1	13796	10415	2660.8	7485.2	3608.4	4118.6
200642_at	SOD1	6647	6847.8	9745.3	10579	7387.1	8177.1	13454	13432	10875	14943	19065	7605.7	8579.3	8103.1	6844.4	8910.8	7832.5	6860.5	11788	10077	14180	6238.5	2910.1	7176.6	9614.9	6258.3	6538.1	4721.5	12425	7119.9
200643_at	HDLBP	3069	1216.7	663.2	892.6	849.7	923.9	738.4	780.7	502.4	711.2	1305.8	941	1364	1288.6	1835.6	1607.1	1198.9	591.9	474	764.9	1178.9	1076.9	1355.1	1133.2	792.6	621	649.3	923.3	559.9	982.6
200644_at	MARCKSL1	65108	1287.6	6324.2	1929.2	1384.6	1978	4212.4	4147.5	9484.2	7396.1	2130.1	1663.8	608.4	1154.7	2053.4	3743	4370.6	744.5	9324.7	6731.8	3408.1	493	2239.7	3068.1	794	1943.5	1057.7	240.8	6284.8	3103.4
200645_at	GABARAP	11337	4101.5	5183.1	4059.2	5906.7	2578.4	4356.8	3810.4	4386.1	7509.8	3321.1	4650.4	4979.5	3858.5	4402.3	4848.3	3275.5	3241.8	5839.5	4771.1	2956.1	4430.7	6044	3102.1	4016.5	1914.2	2845.2	2625.2	3885.6	7012.4
200646_s_at	NUCB1	4924	331	341.4	450.6	703	251.2	220.2	252.9	346.3	392.4	316	1435.6	1434.9	789.5	765.7	497.9	347.4	1465.2	190.8	288.6	446.2	552.3	2125.6	647	986.3	710	259.3	638.9	147	2001.6
200647_x_at	EIF3CL///EIF3C	728689///8663	5065.8	5281.5	11459	5228	4868.3	8342.5	7349.5	8432.8	7168.4	4278.5	3794.8	3652.2	2392.1	3618.8	4527.5	5530.9	6384.2	1372.1	7634.9	5190.5	4537	4309.1	7089.2	5104.8	7646.6	3778.7	2474.1	10175	5825.4
200648_s_at	GLUL	2752	488.7	275.3	163.1	7.1	550.2	1694.7	907	869.4	577.4	4.1	132.1	97.7	342.7	13.1	3.8	3.4	278.9	359.3	598.6	5.7	844.8	67	1487.3	845	819.5	157.5	2078.3	645.8	2.4
200649_at	NUCB1	4924	866.8	784.1	1021.6	1717.5	526.5	559	650.9	776.2	878	656.7	2757.6	3328.4	1827.6	1703.8	1165	762	2870.5	578.4	624.8	998.5	1820.2	4850	1577.1	2218.5	1736.9	732.4	1495.7	248.9	4211.7
200650_s_at	LDHA	3939	17207	11923	13981	15603	20802	12918	18018	12860	11954	15893	15621	13994	7409.4	6718.2	10038	13283	10526	6741.7	9841.1	11627	7373	14902	18267	8709.3	8251.8	11576	20904	12308	2786.2
200651_at	SNORD96A///SNORD95///RACK1	619571///619570///10399	15426	17602	17005	14477	19976	16791	13611	12541	13821	19030	16600	20338	13044	21433	12961	23021	13343	4515.5	11584	14208	8624	16053	21672	13774	16516	17248	12954	13667	23839
200652_at	SSR2	6746	2815.2	4074	3223.6	3831.2	4200.8	5915.4	4253.1	3112.3	2396.6	6618	5685.6	5710	6410.3	3810.8	3930.7	5421.9	1766.5	2261	3159.2	3568.3	3601.6	4966	4238.4	4344.8	5255.9	4423.7	3905.2	4333.7	10225
200653_s_at	CALM3///CALM2///CALM1	808///805///801	583	2796.2	3555.3	2435.8	1659.8	1116.8	4596.3	2568.8	3359.4	1161.1	1749.1	1038.8	1842.7	1037.2	1218.9	1012.6	2926.1	3337	1923	520.6	2238.1	551.9	2383.4	2109.3	1740.2	1373.4	1331.7	1395.6	538.3
200654_at	P4HB	5034	8945.8	7313	8950.1	12239	7170.6	8892.8	12318	6652.6	5777.2	8162.4	15511	21930	9740	10069	7283.3	11940	10287	4331.8	7751.8	4945.4	13102	22580	17774	11009	11928	8230.2	16811	8888.8	25322
200655_s_at	CALM3///CALM2///CALM1	808///805///801	996.6	5342	5191.3	4196.7	2858.6	1791	7314.2	2914.1	4213.5	1457.5	1867.1	1221.2	2520.1	777.5	1549.1	1494.3	4507.4	5375.8	2147.4	489.4	4109.5	1366.7	3930.7	2844.8	2714.9	1934.6	2037.2	2005.2	701.6
200656_s_at	P4HB	5034	4686.2	3596.5	4723	5327.8	3707.2	3947.8	6078.5	4569.4	3275.7	3980.1	7352.6	9926.1	5367.2	5693.3	4091.9	5913.8	4937.1	2564.9	4233.1	2196.2	5261.2	9901.3	7744.9	4069.6	4466.1	3209.7	6410.2	2758.5	8417.4
200657_at	SLC25A5	292	15172	9794.8	10450	11807	16817	7218.9	8660.5	14209	10598	9910.4	14128	5879	9606.4	9872.3	8256.3	12285	13327	9343.5	6574.7	7614.8	6760	11857	15250	12742	15595	11637	18784	10777	13117
200658_s_at	PHB	5245	4304.9	5276.9	7127.9	5591.1	4302.9	5603.6	4159.5	5519.4	2962.1	8010.3	2747.3	2197.3	2230.7	3442.5	4099.1	3876.9	1562.2	1890.5	3737.5	4374.8	1532.4	1740.1	3557.8	2695.3	2917.2	1718.5	5794.6	4735.2	2049.8
200659_s_at	PHB	5245	1051.6	1644.7	1460.1	2292.6	1001	1609	851.2	1871.6	665.4	1690	634.3	543.1	516.4	695.5	1107.4	972.8	419.2	587.1	1173.3	833.6	332.2	506.1	785.5	888.2	876.6	735.1	1248.2	1202	399.4
200660_at	S100A11	6282	8610.9	7.2	4521	9063.8	2777.7	100.3	1409.9	6.5	755	368.1	7765.9	3288.8	9224.6	29.2	5.1	454.2	12576	603.8	131	271.4	10442	2810.9	7848.6	8135.2	6580.1	2260.5	7770.5	532.5	11.9
200661_at	CTSA	5476	1597.5	891	1213	1784.7	900	830.3	649.5	1164.1	783.6	805.3	2422.5	7289.7	2021.8	2201.7	2684.2	345.4	1249.4	1356	906.8	650.8	4923.2	4562.2	1137	2032.6	1306.1	777.2	3422	1756.1	4691.1
200662_s_at	TOMM20	9804	2677.4	6624.9	4675.1	4057.4	3435.4	6765	4450.9	4113.5	5757.3	4481.7	4076.3	2921.3	2064.1	4959.9	3714.3	5763.1	4682.3	1411.7	5756.6	5542.6	4321.3	1830.3	3453.4	3091.6	4809	7039.9	2190.1	6216.1	3277.5
200663_at	CD63	967	5798.2	3313.8	5972.1	8425	4543	6003.7	7658.6	3181.7	2145.2	9300.6	8128.1	11305	7316.3	5154.3	6316.9	5518.8	5078.9	5337.9	3873.5	5252.6	6323.5	8273.5	11782	7159.1	6525.7	6887.5	10479	5215.9	7775
200664_s_at	DNAJB1	3337	3159.6	1052.5	2006	1494.2	658.3	1352	1315.4	762.2	1172.2	1908.8	995.7	5442.8	863.7	1164.2	1094	714.1	2576.3	640	1326.2	1508.2	1653.1	3721.7	1050.5	3109	2132.3	1249.3	1956.2	717.6	995.4
200665_s_at	SPARC	6678	29.8	5.6	3.3	43	4	33.8	6.5	3	2380	1378.7	12.2	1876.3	3.7	54.4	3.4	4002.2	690.8	17.7	324.3	378.3	64.7	11.8	82.1	56	6.1	12.7	8.1	152.6	50.1
200666_s_at	DNAJB1	3337	3642.5	1649.3	2661.8	2289.8	901.9	2079.9	1943.1	1140.8	1800.4	2643	1671.8	7224.6	1053.6	1429	1547.6	987.2	3570.9	1001.1	1716.2	1987.2	2563.9	6004.2	1621.6	3531.7	2982.6	2302.1	3296.8	1124.5	1303.3
200667_at	UBE2D3	7323	1494.9	1641.3	1670.9	1112.9	1942.3	1367.4	1162.2	1450.3	1812.8	1792.8	1200.2	1282.3	1286.6	1382.9	1132.5	2289.6	1076.5	1195.7	1783.8	1767	1536.4	1357.1	1949.7	735.4	752.6	933.3	874	826.4	791.2
200668_s_at	UBE2D3	7323	4455.4	3856.4	4815.5	4006.1	6077.6	3791.5	3550.9	3215.8	3211	5315.4	3607.9	3115.4	2963.7	3138.3	3719.1	6072	3317.9	2724.4	4793	4372.5	3686.3	1952.4	5649.4	2837	3245.3	2691.2	3586.6	2318.9	2565.5
200669_s_at	UBE2D3	7323	2845.8	2307.5	3180.3	2248.6	3873.7	2857.3	2458.6	2042.9	2238.2	3799.5	2400	2154.6	2053.5	2535.5	2323.8	3433.7	2123.7	1579.7	3021.8	3046	2376.5	1110.4	3555.1	2371	2298.2	1593.2	2520.6	1529	1685.4
200670_at	XBP1	7494	692	1894.5	821.2	578.3	1723.4	640.9	1813.8	819.4	603.1	851.4	2123.5	1588.7	942.4	1189.2	731.7	1017.4	534.4	1050.1	535	691.6	1548	1057.1	1181.1	798.7	1729	3701.3	995	948.4	2111.4
200671_s_at	SPTBN1	6711	376.4	288.5	649.1	407.6	449.8	303.9	205.1	348.8	329.5	6.2	268.9	332.2	488.7	509.3	517.7	192.1	313.9	161.7	295.6	123.3	435.1	108.9	285.5	384.9	163.3	54.1	475.3	70.2	250
200672_x_at	SPTBN1	6711	502	313.6	914.3	818.9	630.4	393	412.9	581.8	424.4	127.9	483.4	592.3	734.7	612.6	760.6	309.9	413.5	556.8	350.1	303.1	850.8	690.8	589.6	559.5	571.2	329.4	741.6	503	768.7
200673_at	LAPTM4A	9741	5100.1	2273	3579.7	4027	1624.4	3309.3	2864.7	3305.9	2561.7	3429.4	5123.3	7292.1	5754.7	3876.6	3058.5	3910.6	4102.3	3233.8	2640.8	2163.4	5126.6	7041	4970.4	6851.9	4283.2	4127.5	4217.8	2226.4	5433
200674_s_at	RPL32	6161	20832	15701	16655	15854	24584	18293	20548	19322	19611	25080	19339	24109	23531	30846	18367	24702	19287	9236.6	17170	20202	14009	20139	16494	10105	10683	29601	19233	15915	29679
200675_at	CD81	975	1441.9	1748.6	2662.8	4789.6	2192.4	2397.2	2852.6	3373.5	1739.6	996.4	4939.4	4969.7	5299.1	2253	2822.6	4731	5906.9	2348.8	2417.5	3677.2	1907.9	3948	3932.8	1892.1	3023.3	1997.5	2813.8	2687.7	4837
200676_s_at	UBE2L3	7332	130.1	229.4	231.5	324.3	190.4	226	183.8	537.5	537.1	158.1	227.4	212.5	284.6	196.5	232.1	235.4	194	173.1	232.2	394.9	338.6	293.3	161.6	167.7	102.1	231.6	196.7	210.5	298.9
200677_at	PTTG1IP	754	4072.1	2503.6	4806.3	3049.3	2327.8	4133.2	9117.7	3492.2	3790.5	3450.7	2321.3	4115.5	4952	2065.1	2377.4	1873.6	2099	5700	3122.5	2220.5	3246.3	6795.2	9637.8	2753.2	1578.1	3659.7	3074.6	2887.5	4916.1
200678_x_at	GRN	2896	1845.5	1766.1	2040.5	2481.1	1599.3	1200.2	1826.8	1212.5	546.9	625.8	2373.3	4505.3	3661.2	3699.7	3535.6	2464.6	1952.7	1058.3	1328.8	1902	2458	6909.3	3085.7	3900.7	3054.7	1852.2	2864	1178.8	9987.8
200679_x_at	HMGB1	3146	4700.1	5335.6	6630	4800.9	8240.5	8354.9	6570	6587.8	6979.9	7973.7	3368.2	2244.4	3469.4	2643.6	4191.1	4752.6	4360.2	4138.3	5302.9	5373.2	5738.6	1275	4637.8	5156.2	5183.9	1901.5	5854	6538.9	1678
200680_x_at	HMGB1	3146	11611	12125	13176	12060	16595	14863	15492	15835	16097	17473	9794.4	9412.7	8426.9	9247.5	11053	13686	11522	11820	12346	13470	11455	6590.2	12797	11949	13548	10083	15278	14696	7950.6
200681_at	GLO1	2739	6675.9	8116.6	9870.9	4236.8	5080.8	6584	706.1	6668.8	6619.8	7469.8	3410.2	3280.3	9544.8	8640.3	12009	7679.1	4355.3	9639.9	6234.7	8938.8	7369.7	2893.4	6787.6	7454.3	7619.3	6081.2	5590.5	8074.1	2347.9
200682_s_at	UBE2L3	7332	1723	2479.4	4104.1	3192.4	5515.2	2865.5	5299.7	3307.5	4172.7	4456.3	2226.5	1982.1	2280.5	1881.1	3120.2	4097.6	2791.9	1515	2810.2	3917.4	4965.7	1228.9	3326.2	3419.2	3175.3	2223.7	3064.9	2127.2	2010.4
200683_s_at	UBE2L3	7332	713.8	962.8	1278.8	1334	1338.1	1266.1	1298.4	1530	1809.3	1230.2	751.3	776.3	1259.9	849.2	1150	1397.3	981.2	657.5	1010	1557.4	1590.1	747.7	1017	1132.1	744.9	898.4	1006.5	956.5	922.3
200684_s_at	UBE2L3	7332	210.6	636.8	640.6	791.6	506.5	540.8	801.1	1362.9	1268.3	606.4	582	317.3	666.5	314	674.3	692.5	640.5	521.1	687.5	994.8	1066.4	559.9	617.3	566.3	311.1	661.5	546.4	710	475.7
200685_at	SRSF11	9295	136.6	198.8	58.8	54.3	152.8	172.1	34.9	490.6	476.4	222.8	218.5	244.9	220.1	233.2	176.3	294.7	125.1	397.1	450.2	377.7	171.8	124.1	74.6	37.3	65.2	306.6	53.8	484.1	83.9
200686_s_at	SRSF11	9295	1735.5	2861.7	1753.8	1037.2	2663.3	1343.7	1940.4	2748.2	3438.4	2475.2	1369	2359	1608.2	2015.9	1972.4	2930.5	1737.7	2644	2952.8	2149.1	1805.7	1032.8	1363.6	802.1	1255.5	2242.4	1427	2709.3	476.3
200687_s_at	SF3B3	23450	995.4	2418.9	2880.5	1834.6	2052.1	897.5	1636.5	1706.1	1273.4	850	1214.8	764.9	1383.3	1154	2213.3	1494.6	1358.8	978.6	2605.7	1756.3	972.9	2282.4	692	2063.1	1256.6	975	1165.8	1686.9	1231.5
200688_at	SF3B3	23450	221.1	263.6	472.1	316.3	253.5	277.3	270.7	230.7	356.7	95.3	320.2	349.5	331.6	419.6	314.9	504.2	174.6	169.3	357	190.8	260	325.7	211.9	531	467.2	217.1	179	228.6	329.4
200689_x_at	MIR3654///EEF1G	100500804///1937	20265	18352	16285	15088	21302	16960	16471	15056	13910	16752	14851	16404	13656	22249	15140	26969	12132	9780.7	12716	15452	13487	28133	21843	12239	20635	27126	16079	22901	25847
200690_at	HSPA9	3313	230.2	382.1	861	433.4	818.8	235.6	359.6	311.9	436.2	447.8	773.5	585.5	318.8	1031.3	558.7	897.3	666.9	628.5	590.3	882.1	636.7	166.5	399.9	581.2	598.3	1231.8	446.9	536.3	839.2
200691_s_at	HSPA9	3313	3183.4	4421.1	5618.1	4533.4	3979.5	3648.2	4953.6	3804.2	3522	4559.6	5350	4334.6	2832.8	7339.3	4459.2	5737.8	5658.7	2655.4	4532.8	5266.3	3483.2	1833.7	3028.9	6075.4	6900.7	7430.3	3087.3	5384.2	4661.2
200692_s_at	HSPA9	3313	2098.7	2867.5	3958.4	2537.7	3101.9	2379.2	3492.5	2056.2	2233.4	3686.6	3402.5	2887	2030.4	4969.8	2686.3	3800.3	3489.8	1442.5	2676.5	3750.5	2105.3	810.4	1775.2	3936.4	5201.7	6129.5	2180.9	3170.9	2409.9
200693_at	YWHAQ	10971	11218	8789.6	10740	10450	6581.5	9564.9	8869.9	10021	10528	6340.6	6232.1	6823.7	6045.8	4519.4	6555.3	8122.6	8973.2	9260.8	9665	6128.2	6496.8	2978.6	7988.7	8953.4	8657.8	4974.6	8704.2	7023.8	5770.1
200694_s_at	DDX24	57062	537.2	1853.8	1230	2058.5	1940.9	1332	2784.5	2365.1	2399.5	2269.8	1213.4	1433.3	1160.5	791.2	1029.9	2637.2	1892.1	2232.6	2481.7	960.3	1483.1	2857.9	2153.3	1308.5	2298	1627.5	1958.4	2518.3	878.5
200695_at	PPP2R1A	5518	1157.6	1253.5	1271.2	1199.6	1528.3	1293.8	1233.9	1604.1	2135.5	1393.4	897.9	1228.6	1098.8	1192.8	1008.5	1017.4	1321.9	995.3	938.6	1310.8	1327.9	1359.8	1388.3	1402.9	1457.7	916.6	1117.9	922.5	1771.2
200696_s_at	GSN	2934	1727.5	633.7	2155.8	453.7	189.6	4698	296.6	163.6	218	187.1	712.5	2556.7	1791.9	355.6	370.3	240	1717.4	646.4	125.2	138.1	718.6	1648.6	1495.3	604.6	345.9	681.2	1058.4	299.4	1340.6
200697_at	HK1	3098	2005	1306.7	1921.2	972	1269.8	730.8	424.7	917.9	3347.6	576.9	1405.4	1427.2	1395	544.6	929.9	646.6	6098.9	1251.3	856.9	1289.7	1834.9	3331.7	1387.9	3226.2	2688.9	1336.7	1717.8	3473.5	1710.9
200698_at	KDELR2	11014	1930.9	1758.2	1465.9	2665.6	1917.1	1480.3	1353.7	1595.7	1323.7	1413.9	3029.7	3396.7	3279.9	2344.8	2604.4	2239.5	3264.4	1730.4	1507.1	1809	3613.3	1940.3	2435.1	2630.7	1744.5	3429.2	2577.2	1498.6	3565.3
200699_at	KDELR2	11014	1648.9	1863.2	953.6	1810.4	1435.3	1705.4	611.5	1465.3	1411.9	1571.1	3447.9	3075.5	3892.3	2150.9	2475.1	2280.5	2111	1336.8	1552.4	2212	4242.6	1919.9	1283.5	1157	880.1	3904.9	1803.9	1140.3	3024.5
200700_s_at	KDELR2	11014	4947.5	2052.7	3282.2	3291	4533.8	2861	2647.7	2084.4	1777.6	2270	4219.3	5182	5199	3319.7	3221.2	3328.7	6223.7	2194.9	2235.1	2698.2	5886	6695.2	6214.2	4874.9	4080	5662.6	5396.6	2354.5	7146.4
200701_at	NPC2	10577	9574.8	1154.1	2673.5	3785.9	1368.7	1098.1	3523.7	501.4	688.3	2971.3	2371.5	3295	3464.7	3169.1	3526.7	2065.7	3754.5	1317.6	490.4	1301.6	3838.2	8362.8	7854.3	2573.3	1930.7	2680.1	3803.6	235.9	2817.1
200702_s_at	DDX24	57062	115.1	696.8	405.1	528.3	796.8	467.2	1138	692.7	772.5	853.8	542	400.7	431.7	268.6	300.5	1248.3	735	846.2	1110.5	322.2	325.9	598.7	779.5	556.3	697	564.6	645.7	659.9	188.5
200703_at	DYNLL1	8655	6172.2	7324	6872.7	6045.7	7069.4	5941.5	7669	7797.8	7940	7694.1	6292.9	5774.5	5303.2	5430.8	6917.6	6395.6	7324.4	9797.7	6494.5	5855.6	5500	8537.8	3658.3	7039.6	5085.2	7699.7	7973.9	6347.5	8497.2
200704_at	LITAF	9516	2340	960.7	457	3970.8	2787.3	574.6	318.7	427.8	563.7	581.9	5461.1	4284.9	1222.6	3151.4	2905.6	988.1	2134.5	456.7	703.4	1017.8	503.2	1396.8	4017.3	1160.5	2235.4	3046.4	2815.2	701	1999.7
200705_s_at	SNORA41///EEF1B2	619569///1933	9684.1	10343	7900.6	8923.6	15926	13917	8387.8	9854.9	8514.9	15342	9035.5	7749.9	10425	12512	10592	14509	7674.8	4193	8334.2	10057	8438	8287.1	8387.8	7110.8	8070.1	13738	9168.4	8396.7	7884.7
200706_s_at	LITAF	9516	1147.7	740.6	409.2	2127.3	1956	286.2	119.7	364.8	490.7	530.6	2224.2	2261.8	474.6	1735.5	1314.3	637.4	1478.2	301.7	450.9	586.6	375.7	737.2	2347	784.8	1918	2509.6	1823	588.5	1465.6
200707_at	PRKCSH	5589	832.9	1458	1747.8	1182.5	810.8	1015.8	1403.5	1272.6	1124.9	444.3	2599.2	3767.1	1962.5	3285.9	2377.9	1588.9	1603	986.8	1048.3	1691	1112.8	6640.3	1035.7	1551.6	1893.7	1307.7	1149.7	1902.6	5704
200708_at	GOT2	2806	3196.1	4472.3	2866.4	2991.5	4260.1	1751	5313	3202.1	2687.8	1332.1	2132.2	1294.9	2432.9	1924.4	2330.3	1791.5	2604.5	1780.5	2311	1966.5	1656.3	3637.7	1723.6	2868.2	1610.4	2461.4	3228.6	2985	2590.3
200709_at	LOC101929368///FKBP1A	101929368///2280	3229.7	4126	4638	5289.4	3376.9	1994.8	2310.8	6314.7	4316.1	3194.4	4198.3	2494.6	3045.6	2458.1	2983.9	2402.9	3631.6	3345.7	2728.3	2510.3	8443.1	3718.2	3095.7	2553.7	2509.4	2818.4	3664.3	4142	2683.3
200710_at	ACADVL	37	1455.2	1091.9	919.4	2011.9	1011.1	817.3	832.7	587.7	1167.4	2090.2	3002.7	4738.5	3426	2790.9	1665.1	2176.3	2344.5	1788.2	1361.6	1979.3	2008.4	5847.9	849.7	2167.9	1460.2	2982.8	1562.4	2788.9	4661.6
200711_s_at	SKP1	6500	2383.8	3017.4	1625.2	2695.9	1229.7	3216.4	1420.6	2304.2	2582.1	2855.7	1861.8	2180.2	1506.1	2009	1714.9	3846.1	2060.2	1626.3	1759.5	2146.1	1781.4	1451.4	3607.9	1494.4	915.7	1838.9	2152.1	1937.4	513
200712_s_at	MAPRE1	22919	1984.9	1919.4	1775.4	1955.4	1915.5	1032.1	2107.3	2635.2	2136.9	1843.1	1596.9	676.9	724	2695.9	2274.3	1603	1662.8	2523	2084.3	1623.4	814.2	532.7	1048.2	2044.6	1814.8	1529.6	2248.9	2215.5	707.6
200713_s_at	MAPRE1	22919	4529.3	4646.6	4254.1	5407.2	4778.2	3339.7	5451.5	6728.3	5672.7	4441.4	5112.7	2876.5	3059.2	6694.1	5872.1	4634.1	4788	8235.6	6611.8	5710.5	3920	3818.6	3828.8	6972.4	4757.4	5037.5	6711.8	8105.6	3102.5
200714_x_at	OS9	10956	988.5	2218.9	2271.9	2381.7	1308.3	3009.9	3408	1888.1	2309.8	2394.6	3825.2	5083.6	2806.8	3302.9	2899.1	2339	4037.7	2619	2985.8	3048.2	4479.6	6576.2	2795.9	5015.6	4367.3	3665.7	3531.8	2776.8	5415.6
200715_x_at	SNORD32A///SNORD33///SNORD34///SNORD35A///RPL13A	26819///26818///26817///26816///23521	10566	12527	8173.1	12042	20784	11932	4776.4	13275	12567	14570	20310	15119	8651.4	19260	12321	22771	10461	1480.8	8050.6	12503	11232	22862	14566	10481	15484	18608	9390.7	12299	20518
200716_x_at	RPL13AP5///SNORD32A///SNORD33///SNORD34///SNORD35A///RPL13A	728658///26819///26818///26817///26816///23521	24614	20217	17188	19951	29279	22337	19425	22378	22660	26970	24452	24507	16063	30554	17669	31261	19712	6820.6	17092	23066	18915	32509	25598	19830	26614	33538	20274	22434	37435
200717_x_at	RPL7	6129	19363	21006	21501	19631	28060	25343	19597	25164	24643	27526	23372	24702	18708	34072	22125	32155	21718	15868	20922	30016	19596	19546	22494	22002	24544	29744	22278	23040	31282
200718_s_at	SKP1	6500	8648.7	9922.4	8151.2	7859.6	9727.6	10324	8275	8126.7	6893.9	12077	8898.6	9629.8	7593.7	8279.7	6826.6	11852	8320.8	7677.1	8412.7	9331.7	5915.3	5356.6	11904	6483.1	5415.7	6850.6	9857	6668.1	3926.9
200719_at	SKP1	6500	462.4	646	199.9	309.3	267.4	620.5	177	311.8	426.5	645.3	427.5	795.3	239.6	314.7	303	513.7	269.1	328.8	453.4	568.4	521.3	339	582.4	178.1	277.3	553.4	211.6	415.3	192
200720_s_at	ACTR1A	10121	491.5	1185.1	1229	857.6	760.3	454.1	863.2	822.4	1216.9	773.8	635.6	596.8	617.1	561.7	639.6	705.3	574.2	1170.7	673.9	558.5	637.4	942.7	895.5	655.4	434.8	495.6	625.1	597.2	885
200721_s_at	ACTR1A	10121	562.2	1726.4	1279.5	1090.2	712.5	543.5	713.9	860.8	1463.3	750	807.5	864.3	669.6	436.2	537.2	833.7	684.1	1022.8	715.7	673.3	955.4	909.3	973.4	492.5	453.4	380.7	618.4	647.6	1195.4
200722_s_at	CAPRIN1	4076	3460.6	2088.2	2792.3	2378.3	3249.1	2869.4	2615.3	2895	2911.8	2549.7	1704.3	844.2	1743.9	1659.2	1750.2	3324	2365.7	1358	2930.9	3298	2003.5	931.3	2491.3	2464	2309.7	2169.7	3447.1	2690.4	801.3
200723_s_at	CAPRIN1	4076	6071.8	4649.2	5424.9	5741	6133	6698.6	5668.8	5993.8	6333.8	4703.3	3852.5	2504.1	3439.3	3145.4	3817.2	6590.8	4480.1	3065.6	5571.9	6895.2	3734.6	1994.7	6055.2	4377.8	4603.4	3464	6149.2	4904.4	1676.8
200724_at	SNORA70///RPL10	26778///6134	109.2	66.8	73.1	75.5	72.2	110.5	81.5	92.8	86	50	102.8	102.2	165.5	155.6	93.1	94.8	42.3	54.5	64.6	85.8	105.5	148.8	90.5	100.6	85.9	93.7	117.9	125	120.5
200725_x_at	SNORA70///RPL10	26778///6134	16878	14325	11916	13792	21016	13236	10063	16539	14054	16437	17339	12048	13362	19874	10803	15335	12676	7893.8	9071.7	12394	13771	23937	20614	12150	16396	22453	17085	20157	24524
200726_at	PPP1CC	5501	3312.7	4061.5	4127.3	3318.8	4754	3182.1	3355.7	3589	3133.4	3649.9	3309.3	1768.4	2031	2365.8	3697.7	4062.4	2750.1	2428.9	3906.3	4389.8	3269.5	2892.4	2376.7	3717.2	4089.2	2751.2	3133.2	3846.9	2892.3
200727_s_at	ACTR2	10097	2139	2060.7	2717.8	2522	3079.2	1736.1	1257.4	1610.7	1482.1	870.4	1828.6	1310.9	2533.2	3048.4	2546.2	2495.7	1554	961.7	1513.2	1730.5	1849.4	308.6	1935	3777.6	3723.4	1615.2	3160	1807.7	1685
200728_at	ACTR2	10097	3369.8	4348.1	4579	3976.1	5496.6	3909	1903.7	2867.7	3079.3	2651.6	3559.8	3507.4	5212.5	6103	5455.6	6064.2	3251	2356.6	2919.6	2852.3	4608.9	719.1	3532.6	4928.6	5261.5	3333.1	4603.2	3374.5	3337.3
200729_s_at	ACTR2	10097	2190	2347.7	2846	2458.5	3218.4	1463.2	1027.3	1844.1	1963.3	1155.3	2247.2	1682.2	2694.6	2644.6	2855.9	2547.4	1899.1	1423.2	1440.6	1417.2	2352.6	280.1	1602.4	2697.5	2898.8	1691.2	2046.9	1389.4	1618.8
200730_s_at	PTP4A1	7803	830	1401	1002.4	1954.1	2090.3	1435.5	2613.8	1048.7	816.4	423.7	5230.9	1287.2	329	1325.5	1117.7	974	1016.9	627.4	697.6	478.5	855.7	1040.7	1147.6	3239.7	4105.2	2215.5	1271.4	767.2	1364.3
200731_s_at	PTP4A1	7803	367.2	675.5	272.9	972.2	1218.1	1538.9	1585.1	581.4	606.1	177.2	5015.5	1195.3	216.9	898.4	435.2	542.4	554.6	434.2	433.2	264.6	569.4	410.2	700	2064.3	2132.9	1412.3	494.8	274.9	1417.4
200732_s_at	PTP4A1	7803	484.2	867.7	562.7	1562.5	2114.4	2265.5	2098.2	846.9	894	358.5	6531	1950.6	472.9	2157	919	1062.7	782.7	905	727.7	513.8	926.6	752.1	920	1660.1	2655.6	2508.7	990	628.2	1455.5
200733_s_at	PTP4A1	7803	445.8	706	488.6	953	918.3	634	893.8	489.6	384.4	231.1	1780.6	609.5	136.5	480.5	469.4	405.5	465.2	275.8	269.5	173.1	382.6	598.9	476.1	998.2	1160	1057.7	412.9	272.8	563.2
200734_s_at	ARF3	377	1839.2	2017.1	3131.1	2427.1	2131.5	2094.3	2786.3	2412.6	1748.9	4115.1	1815	1719.3	1995.7	1354.4	2438.5	2402.5	3054.8	2794.6	2293.1	2490.1	1850.6	2269.6	2193.6	3194.8	2455.4	1020.6	2982.1	1418.8	1957.8
200735_x_at	NACA	4666	11914	11788	13056	10857	17667	18326	12926	15145	15247	20257	14132	17410	10707	18844	14900	19932	13218	9034.9	15847	21787	12240	9571.5	11876	11189	13135	17150	12184	13906	11883
200736_s_at	GPX1	2876	6463	3496.1	3259.7	4849.5	5276	2538.3	65.5	2995.5	4066.7	4258.5	1654.8	7.2	1505.4	31.3	3.2	2452.5	2645	2537.5	1843.2	1246.7	1840.8	6626.7	4372.4	2787.8	1912.2	2260.7	5803	1860.1	21.4
200737_at	PGK1	5230	2769.8	1968	3919	3566.4	4445	2871.9	3212.8	4087.1	3059.5	6641.6	3624.4	2827.8	2817.8	1501.5	3668.7	3641.3	3498.9	2499.2	1962.8	3334.8	997.4	2828.7	2306.7	3027.6	3539.7	2909.9	2759.7	3145.6	822.2
200738_s_at	PGK1	5230	7409.6	5084.1	8211.1	8353	10972	6043.4	8865.4	8851.1	7388.7	11660	7873.5	8058.9	6337.1	4419.7	7246.9	9331.5	7805.2	6678	5421.4	7584.4	3095	8843.8	6819.8	7583.2	8384.6	7787.3	7069.8	7875.4	3052.5
200739_s_at	SUMO3	6612	958.8	597.9	1256.8	703.3	943.4	1704.7	642.9	813.9	1192.2	1049.3	494.5	410.2	1106.8	828.6	1351.2	672.7	1160.9	1416.1	1267.7	880.7	782.1	915.8	1608.9	1025.1	1012.1	678.8	922.4	1730.3	466
200740_s_at	SUMO3	6612	2177.7	1956	4279.5	2845.2	2895.9	4418.1	2027.2	2632.5	4484.8	3311.5	1457.3	1222.5	3308.1	2286.3	3390.2	2293.5	2542.3	3843.4	3416.1	2680	3052.4	3219.7	4751.1	3435.4	2174.2	2085.5	2587.8	3648.8	1303.4
200741_s_at	RPS27	6232	14892	13746	11357	10902	19342	15028	13505	14490	13872	21576	15538	17593	14577	20823	13176	24113	12636	9782.7	13496	15473	10607	13401	14769	12899	17309	20942	12469	18338	24799
200742_s_at	TPP1	1200	442.9	413.7	810.2	887.8	802.8	374.9	807.5	515.7	240.4	72.8	1488.9	1662.6	2945.9	2200.7	1752.8	491.3	1876.5	405.2	314.4	405.8	1172.9	1446.7	687	977.6	1111.2	1405.5	1189.6	1032.1	1845.1
200743_s_at	TPP1	1200	407.3	609.7	885.5	1153	897.8	565	1034.2	593.3	243.8	110.9	1848.2	2388.5	3181.7	2206.5	1781.3	836.9	2063.3	540.6	456	514.7	1018.8	1535.8	891.6	718.8	1129.7	1523.2	1136.9	1185.5	1814.4
200744_s_at	GNB1	2782	1604.6	4712.2	4249.1	2734.9	3043.8	2967.4	3153.7	6268.3	6575.8	2515.9	2449.4	1216.5	2826.4	2641.8	3688.1	1765.6	3653.4	5156.6	3996.3	3109.2	768.2	860.3	2914.7	3592.2	1843.1	2041.1	2172.2	4275.1	5436
200745_s_at	GNB1	2782	2346.2	7021.5	3470.5	3191.1	3123.7	4777.5	2877	8593.4	8808.2	2619	3949.2	1952.5	3943.9	3574.3	5068.9	2931.2	5485.1	9635.6	6019.7	5054.5	1394.7	1384	4550.8	3474.6	2175.4	3761.8	2738.1	6946.6	6493.2
200746_s_at	GNB1	2782	2235.7	6955.2	3454	3054.5	3349.5	5301.9	3422.1	9534.7	9724.6	3284.3	3625.2	2369.7	4165.9	3586.9	4351.2	2808.4	4641.1	6980.5	5638.9	4495.2	1352.2	1629.6	3837.9	3282	1745.8	3498.8	2811.1	4753.5	5217
200747_s_at	NUMA1	4926	567	739.3	486.6	442.7	392.5	828.4	700.1	995	1142	186.2	676.9	836.2	951.6	1155.3	925.1	817.2	552.9	1036.5	825.4	724.4	940.1	2204.5	780.9	658.4	495.9	532.4	445.7	516.6	549.9
200748_s_at	FTH1	2495	23369	8139	21018	17664	7498.1	11670	10408	6423.9	5000.7	3854.6	13670	14361	7157	11727	11868	11501	16620	6439.5	6400.8	4959.8	3827.6	22145	16795	17463	17592	16367	14515	3816.5	3796.1
200749_at	RAN	5901	1573.5	1187.7	2068.9	2308	1478.5	2189.4	2953.6	2730.4	2994.1	2531.1	1348.5	402.1	986.1	946.2	690.7	1160.2	1857	1726.4	2338.4	1834.8	1161.3	810.9	1380.7	959.9	973.3	1241.8	590.8	987.6	291.2
200750_s_at	RAN	5901	7580.5	9629.2	10031	9539.3	12226	10393	9718.4	10636	10894	16428	7408.3	2988.1	5524.8	4709.8	6172.4	9047.2	6541.8	6331.8	9707.6	10171	5946.1	5261.6	6898.2	6369.2	6008.3	7532.4	8070.2	8440.8	2355.5
200751_s_at	HNRNPC	3183	3439.4	4172.3	3942.7	2961.8	4496.4	4217.6	2913.7	2953.2	3528.9	5274.2	2532.8	2428.2	2452.1	2747.2	3784.1	3927.4	2266.9	1909.7	3586.3	3968	2189.3	2186.5	2504.1	2780.8	2143.3	2351.5	2675.5	2274.7	1932.1
200752_s_at	CAPN1	823	1862	252.2	331.6	539.2	396.4	396	495.7	197.6	331.8	151.4	355.8	227.9	335.6	373.4	657	580.5	614.7	300.3	129.9	199.7	1111.5	2254	1640	578.9	369.3	276.2	1456.9	160.7	873
200753_x_at	MIR636///SRSF2	693221///6427	1609	2350.6	1836.7	1682.2	2402.4	3316.3	1698	2139.8	2337.8	1807.7	1184.2	872.3	1349.1	1105.3	1399.5	1980.1	1738.5	1779.3	2602.9	1695.7	1412.6	687	1556.3	1269.1	2020.2	1336.4	1798.2	2704	906.8
200754_x_at	MIR636///SRSF2	693221///6427	9310.2	12876	10461	11362	12480	16663	12034	14651	15155	12382	8136.4	8702.1	10847	9459.6	10333	15507	12649	12160	15417	15250	10612	6013.2	11026	9701.4	14147	12231	13699	16161	5233.9
200755_s_at	CALU	813	1570.8	901.8	1096.9	1151.2	565.7	934.6	1273.2	603.6	490.6	602	2729.7	1314.1	3815.5	2010.7	1962	1503.9	1059.2	924.5	515.8	560.4	1477.8	745.2	1295.4	2091.3	1441.6	2440.3	608.6	1053.5	1895.3
200756_x_at	CALU	813	1296.8	1037.6	1049.9	1115.2	682.5	1021	1278.1	653.4	563.2	641.2	2007	1119.7	2361.3	1569.3	1320	1147.2	934.6	885.5	545.3	666.5	1115.5	698.6	1167.7	1601.8	1513	1507.5	624.2	1222.7	1863.6
200757_s_at	CALU	813	2312.9	1515.4	1810.9	2045.9	974.1	1698.3	2012.3	1325.7	1189.5	1110.4	4252.6	3490.3	6452.9	3522	3774.7	2979.6	2038.8	1667.7	1045.9	1217.4	3955	2642.5	2981.8	3579.7	2901.9	4811.7	1404.2	2184.7	4653
200758_s_at	NFE2L1	4779	1710.3	1144.8	2323.3	2109.2	717.4	1871.2	2459.1	1163.3	682.9	1387.4	1345.8	2697.6	1783.3	1819	2055.4	3002	2501.1	1068	1808.3	1421	1990.9	3667.7	2691.4	4032	3705.4	2116.8	1599.3	1602.6	3859
200759_x_at	NFE2L1	4779	2071.7	1955.4	2815.6	2699.2	934.4	3299.2	3531.7	2036.5	1100.9	2060.4	1810.8	3567.8	2479.4	2735.5	2700.8	3738.8	3025.1	1903.9	2441.4	2232.9	2637.7	6987.5	3863.5	6325.7	5741.9	3402.2	3312.2	2500.4	6070.8
200760_s_at	ARL6IP5	10550	1279.8	1568.3	817.2	2224.3	2868.4	1103.5	1033.7	734.8	508.5	860.4	1781.8	2376.6	2063.9	1239.5	1497.8	1521.8	1260	910.9	457.4	232.8	2204.5	1130.4	2309.2	886.2	620.4	997.2	2443.4	703.4	559.1
200761_s_at	ARL6IP5	10550	1724	2650.7	1169.7	3765.3	4599.6	1396	1523.1	1113.3	725.9	1332.8	3286.4	4052.7	2186.6	1232.9	1934.1	2524.8	1670.4	1185	609.7	283.4	3893.9	3012.1	3680.7	713	576.4	1455.5	2901.9	1177.5	776.9
200762_at	DPYSL2	1808	1770.5	3751.9	1251.7	2219	1873.3	1136.7	1792	1784.2	4169.8	928.9	1355.1	1155.8	845.9	250.9	139.5	1308.4	418	3820.9	2557	1984.7	560.8	956.8	153.3	274.4	229.4	734	107.5	1211.4	1113
200763_s_at	RPLP1	6176	18898	14322	14569	16486	24414	20241	15469	16426	15371	19832	18769	17423	10297	22611	16622	25457	16963	14952	14142	18583	11578	25031	16228	15119	18142	24855	20473	22313	28020
200764_s_at	CTNNA1	1495	346.5	1125.4	1398.4	1682	1185	1371.7	1099.6	389	800.6	936.8	1565.9	2015	1666.4	1743.5	1352.4	836.6	1538.6	1030.6	622.6	772.7	1652.5	2009.1	3213.7	2333.4	2703	1669.1	1358.5	577.2	1610.8
200765_x_at	CTNNA1	1495	238.6	1857.9	2084.2	2832.7	1803.9	2447.3	1879.6	373.1	1212.7	1296.4	2639.5	3640.6	2817.1	2741.8	2230.6	1330.7	2582.4	1701	888.1	1352.7	3344	3655.7	6562.6	4175.9	4332.7	3340.1	2728.1	870.6	3123.6
200766_at	CTSD	1509	916.6	193	412.5	754.8	260.8	219.5	456	381.6	241.5	200.4	917.7	2481.9	869.2	415.2	405.9	206.4	2903.6	225.4	226.2	486.7	1225.6	3794.7	4415	794.3	625.2	318.3	2491.4	324.2	1395.3
200767_s_at	FAM120A	23196	432.3	689.4	420.3	519.7	501.4	565.3	462.4	500.9	406.7	128.1	439.4	442.3	596.6	476.5	270.8	375.2	602.9	584.2	393.2	522.1	509.1	500.9	644	1054.9	777.3	542.4	546.1	517	335.4
200768_s_at	MAT2A	4144	2087.2	3121.5	2204.2	2441.8	2510.1	3448.2	1280.3	3837.5	4978.6	3574.2	3694.9	4764.1	2407.9	6808.1	4208.7	3910.8	3089.6	1977.4	4629.9	2351.1	2936.8	783.8	2281.8	2149.2	3077.4	5779.7	2544.8	5432.8	1740.1
200769_s_at	MAT2A	4144	1106.3	1310	1423.2	1257.5	1360.6	1547.9	883.4	1491	2677.2	1820.5	1586.1	1898.8	1424.1	4034.3	2251.1	1942.2	1659	1114.9	2694.7	1543.3	1070.6	345.5	846.4	1383.1	1852.5	2622	1487.7	4070.1	1061.2
200770_s_at	LAMC1	3915	478.3	573.9	1632.9	1341.1	676.1	1593.6	481.3	324.7	379.5	227.4	1269.1	2637.6	1143.4	684.5	687.7	1354.2	1480.1	247.7	304.9	472.2	2357.9	1878.6	1011.3	1395.2	1448.2	796.8	750.3	612.7	1353.3
200771_at	LAMC1	3915	862.9	1016.8	1999.6	2644.1	823.9	4869.1	672.1	664	605.5	346.2	2794.3	4516.2	2369.5	2171.4	2104.1	3061.1	2620	662.8	821.8	775.4	5079	2350.8	1372.1	1734.1	1597.2	2348.3	1438.7	1797.7	3046.8
200772_x_at	LOC100506248///MIR1244-2///MIR1244-3///MIR1244-1///LOC728026///PTMA	100506248///100422885///100422872///100302285///728026///5757	8009.4	12591	6762	7526.5	14613	12739	7142.6	8999.3	10019	9025.6	4262.6	3453.1	4724.9	6156.7	8072.6	8540.6	4943.7	10197	9936.9	7295.6	5449.9	10394	8926.6	7558.6	7627.4	4668.2	9619.1	10078	5187
200773_x_at	PTMA	5757	7143.5	8294.6	5100.2	6013.1	10434	8422.1	6241.9	9590.3	8595.2	8371	4910.8	4534.2	4845.5	6528.7	7242.9	7474.8	5801	8442.4	7831.9	7556.4	5126.3	9139.1	7811.4	6726	6256.1	4744.7	7647.9	7200.1	5333.4
200774_at	FAM120A	23196	3613	5075.3	3896.8	4335	4318.8	4373.9	3801.4	4882.7	4407.9	779.1	3774.1	3426.1	4018.8	2400.6	2495.6	2919.6	4558.1	2961.2	3626.1	3768.1	3316.6	3840.6	4425.6	6142.9	4824.9	3786.9	3945.4	3548.9	1487
200775_s_at	HNRNPK	3190	5508.6	6066.8	5174	5089.8	6627.1	6775.3	5852.1	7299.8	5734.2	7410.4	4645.7	4842.8	5214.8	4880.7	5784.3	6125.6	5015.4	5351.6	6322.4	6331.4	4783.8	3434.4	5212.9	5648.1	4702.5	5035.3	5321.5	4599.9	3288
200776_s_at	BZW1	9689	4102.9	1832.2	5055.3	2322.9	3801.8	2521.7	2133.7	1928.8	1899.7	2260	2069.6	1584.3	3077.9	1561.9	2576	1614.2	1783.8	1123.4	1901.6	1721.8	1164	708.1	2418	2291.9	1692.2	1363.9	2957.1	842	564.9
200777_s_at	BZW1	9689	5008.7	2475.6	7024.7	4053	4624	3250.6	2611.3	2576.7	1995.8	2632.7	2272.2	2336.8	3043.6	1484.1	2801.6	2584.8	2238.5	1718.2	2529.8	2180.5	2410.4	2119.3	3400.3	2472	2840.1	2522.3	2710.2	1378.9	933.1
200778_s_at	SEPT2	4735	3926	2786.1	3055.7	3857.4	3844.8	4454.6	2703.7	3177.2	3922	3995.5	4403.8	2392.7	6516.1	6265.2	6757.9	5249.1	2931.2	2970.4	4461	4952.7	3023.6	1242.8	3301.2	3547.3	3342.3	2775.3	3994.4	4376.6	2315.3
200779_at	ATF4	468	7176.9	5721.2	5216.7	5145.8	5450.9	5817.1	8947.6	4171.1	5577.5	7752.3	4411.5	7212	4479.6	6301	5556.2	6666.1	3907.4	5214.2	6315.5	7364.3	6548.6	7296.3	5369.2	6362.9	7525.8	9788.7	5304.3	7852.7	13323
200780_x_at	GNAS	2778	11627	7826.5	9434.2	11270	11707	10867	15423	17940	19288	15869	10252	11929	11241	10188	14578	12019	12025	29530	18751	20607	16167	17602	10930	15511	17615	16325	18369	17069	28491
200781_s_at	RPS15A	6210	18193	15989	11509	13877	21365	19155	16822	18703	17435	20984	17651	20707	14321	23550	15599	23559	15781	10665	15343	18665	13685	19194	17604	12456	14752	24235	18489	17647	23934
200782_at	ANXA5	308	6305.7	1254.9	9356.2	4114.4	2906.4	2699.7	2460.5	1868.6	1484	1886	2796.2	4305.1	4301.6	2011.8	2153.8	1778.7	1719.5	2181.1	1206.3	1740.9	3456.3	3445.3	1588.6	2896.4	1564	3420.9	3578.6	903.3	2446.9
200783_s_at	STMN1	3925	498.5	3653.5	888.8	659	1114.5	1043.5	1536.2	2900.7	4327.9	1314.1	358.9	258	1543.7	374.9	1045.3	501	845.8	2538.1	2657.3	1459.6	807.8	334.4	548.2	1026.7	355.8	431.3	447.7	1587.6	279.5
200784_s_at	LRP1	4035	25.2	15.9	17.4	67.9	15.7	19.1	20.9	18.5	17.6	15.9	85.7	620.9	121.5	253.2	172	61	404.7	33.4	17.8	29.5	124.8	138.8	41.3	36.8	20.5	38.3	53.5	18.9	627
200785_s_at	LRP1	4035	54.6	60.2	58.8	75.3	45.7	99.6	34.9	27.5	21.7	5.3	149.5	886.2	213.1	349	261.4	96.3	546.4	73.8	72.3	115.3	181.4	142.6	65.2	62.6	86.5	144.4	105.7	73.2	617.6
200786_at	PSMB7	5695	8965.8	4827.3	9106.3	4832.9	4721.1	4946.3	7951.2	4535	4320.4	6607.9	3135.1	5044.4	5238.9	2234.3	3372.2	4315.7	5715.1	3754.4	4222.8	3726.3	3593.4	3666.6	3729.5	4400.3	2033.2	2898.7	3808.4	4754.7	2526.4
200787_s_at	PEA15	8682	1670.1	548.9	1037.8	1430.4	761.4	904.2	648.8	734.6	643.8	1557.7	395.9	1259.6	4251.9	367.5	703	879.3	864.3	1478.9	1047.2	1068.2	1606.8	1008.4	1384.6	1701.6	930.4	983.7	755.2	1027	746
200788_s_at	PEA15	8682	1993.5	527.2	1184.3	1984.1	749.5	978.2	525.6	573.8	414.7	2176.8	649.9	2244	5566.8	501.5	863.2	1320.4	1051.3	1493.1	1258	1332.4	2455.9	1486.2	1865.4	1556.2	1069.9	1657	936.3	1396.1	1114.8
200789_at	ECH1	1891	905.5	1185.6	567.6	2181.9	1429.4	683.7	591.8	877.3	1066.4	792.1	2642.7	1572.8	605.9	2742.6	2278.3	2103.9	1915.2	1084.5	541.9	863.9	1273.5	1942.2	1250.4	2909.6	1856.8	1002.4	1722.6	730	2440.2
200790_at	ODC1	4953	6372	10863	8830.6	8788.7	11444	16474	11039	15218	8091.3	13208	5107.1	3708.2	4247.2	3213	7011.1	3853.4	9671.3	9350.4	12298	7658.4	9357.4	2604.5	3977	9853	7204.2	7265.2	10375	11118	5226.4
200791_s_at	IQGAP1	8826	1978.6	858.2	1241.3	1631	1933.8	1196.7	762.3	1388.7	992.3	496.2	2285.5	1528.2	2257.1	1485.7	1464.9	856.1	870.8	1342.4	605.5	864.6	3116.4	974.2	3314.8	812.6	1335.9	2820.7	1874.4	1890.8	1804.3
200792_at	XRCC6	2547	7231.6	6130.6	10536	5240.9	7856.3	8597.5	5274	8604.9	9628.7	10805	4590	4847.9	6576	5126.8	6867.5	6976	5241.1	4377.1	7309.6	9625.2	6359.3	7719.6	5803.4	7470.4	5612.7	3437.4	9312.7	6486.1	3891.4
200793_s_at	ACO2	50	1511.1	945.4	2307	1427.8	2467.4	1308.7	2221.2	2236.1	3301.3	1427.3	2227.7	1092.5	1203.2	1248.5	1382.4	3015.1	2377.9	659.3	1016.2	1682	1140.9	2662.4	993.5	1409	709	541.9	2589.8	2589.1	5435.5
200794_x_at	DAZAP2	9802	2201.5	2826.3	1975.8	4142.7	2622.8	3986	4920.2	2804.1	1691	3484.6	4076.8	3634.1	2963.2	2870.5	3413.8	2507.9	4384.9	3367	3663.7	4113.5	3124	3694.6	4471.9	5439.5	4864.1	3040.9	3873.8	3614.5	3562.8
200795_at	SPARCL1	8404	73.4	82.1	28.1	56.1	51.9	67.9	158.1	111.1	63.6	48	35	234.9	76.6	49.5	63.2	136.6	282.6	281	64.4	53.3	257.3	80.5	53.8	1057.8	7360.7	122.3	111.3	64.2	127.3
200796_s_at	MCL1	4170	707.1	500.9	967.4	662.5	693.7	564.2	664.4	442.1	414.9	399.9	330.3	1031.1	822.9	1477.4	2417.9	449.9	815.4	212	747.7	498.7	794.5	288.7	556.9	712.3	1389.8	1126.4	737.8	462.3	409.5
200797_s_at	MCL1	4170	2141	2810.3	3690.4	2690.8	3319.1	4823.6	2026.9	3180.8	2453.7	2561	3499.5	12069	6558.8	10053	12009	2862.4	5450	2307.6	5008.9	3139	7896.5	4394	4656.8	2677.6	5231	8119.6	3091.4	2159.6	2373.2
200798_x_at	MCL1	4170	1885.9	1386.7	3829.6	2804	2025.2	2449.6	2119.1	1529	1526.2	1436.1	1716.5	5423.9	3606.6	5405	6627.2	1642.5	3255.6	1376.3	2476.1	1572.2	3685.8	1271.5	2095.5	2900.4	3895.2	2886	2467.8	1143.9	1216.4
200799_at	HSPA1B///HSPA1A	3304///3303	7503.7	7040.1	7767.9	5303.9	1226.3	1113.8	4283	2.8	35.3	17.4	4194.5	11427	2848.1	4494.2	4477.8	1598.8	8104.4	3232.8	2435.1	39.8	3252.8	12542	2763.5	6457.6	6369.4	5443.2	16	1022.6	6407.2
200800_s_at	HSPA1L///HSPA1B///HSPA1A	3305///3304///3303	5245.5	6386.3	5374.3	2705.5	491.9	782.1	3097.8	254	128.8	798.9	3059.1	9329.8	1891.1	2790.5	3570.1	1048.8	6804	2116	2432.5	1335.6	2188.9	13951	1411	4988.4	4304.6	3923.6	1109.7	495.2	3062.3
200801_x_at	ACTB	60	22287	17651	17504	21323	32147	17286	15091	19016	19350	11826	19671	23991	22662	14144	15994	14082	19859	16460	16386	18038	20781	25391	23600	16458	14704	21707	23393	15303	22111
200802_at	SARS	6301	3867.7	2812	4561.2	1673.9	1971.7	2694.7	3127.8	2224.5	2721.5	3833.4	1177.7	2581	2519	3287.5	1845.1	3109.2	2419.2	2594.9	2502.7	4135.9	2240.7	3951.8	3129.9	3258	4114.9	3987.6	1877.7	4375.8	4941.7
200803_s_at	TMBIM6	7009	6140.8	3096.1	6177.1	6150.4	4269.9	4288.9	7345.1	3080.5	1870.1	8986.3	4782.9	5304.6	4092.6	3189.1	2809.1	3840.8	4727.3	2643.3	4594.9	8150.9	4265.5	4235.5	6388.3	6574.8	6138.6	4425.6	5181.1	1970.6	5977.7
200804_at	TMBIM6	7009	6760	4322.7	4169.2	5340.9	3565.8	4619.7	3850.4	3416.8	1939.8	10826	4638.8	4459.6	5028	3406.4	2990.8	3654.2	4072.6	2849.3	5299.2	8003.6	5705.3	7606.9	5506.3	4227.4	3941.9	5861.5	4589.1	1612.5	5234.8
200805_at	LMAN2	10960	1795.4	1347.7	1197.6	1357.4	1256.3	1077.8	847.7	512.2	422.5	1418.3	2140.7	1954.8	852.1	777.5	1035	1765.2	1103.8	472.3	584.8	627.9	617.2	1433.2	2236	1259.7	1523.1	799.2	1137.7	810.2	3040.6
200806_s_at	HSPD1	3329	9832.3	11501	13901	10717	14441	16421	10432	16415	13005	17693	10167	5504.6	8833.8	9733.2	9835.5	13972	9141.2	8397.3	12777	17619	7848.7	3203	6406.8	10223	11145	10513	12158	13855	4640.3
200807_s_at	HSPD1	3329	14189	15459	17252	14822	19146	17064	15449	19049	14803	21702	12193	9193.4	10669	11991	11167	17025	12033	9891.5	13708	18256	9794.9	7088.3	9398.2	11474	15186	14014	13948	16030	6898.4
200808_s_at	ZYX	7791	514.7	113.3	415.2	1292.5	724.9	297.1	91.9	156.3	167.5	113.9	728.7	1182.9	945.2	613.1	768.8	287.7	496	405.2	217.2	449.8	383	1621.8	555	365.2	586.2	780.9	303.8	364.8	901.4
200809_x_at	RPL12	6136	19687	19875	19136	14152	24101	24802	16922	18801	15822	21002	16678	24530	18234	31553	16351	27431	19760	10767	17267	19919	16418	20158	21836	14414	14175	30024	22820	23551	36743
200810_s_at	CIRBP	1153	432.2	3471.3	1057.3	917.8	1940.9	2515	3904.6	1686.4	2790	2074.5	1224.4	710.2	689.3	1210.8	1520.8	5944	1085.8	1709.8	3409.1	2196.1	1870.5	2381	3246.3	925.9	1475.1	1107.6	1403.5	2961	1959.7
200811_at	CIRBP	1153	659.9	3075.7	1005.1	1092.4	2079	2513	3072.9	1619.7	2494.4	2048.1	1198.8	720.5	761.2	1473.5	1329.5	4747.1	986.1	1799.8	2950.9	2291.3	1950.2	2456.3	3367	1155.7	1493.3	1270.4	1624.5	3253	2035.5
200812_at	CCT7	10574	4744	7044.2	8449.5	6065.4	5592.3	5877.9	4295.6	6094.7	5946.4	7333.7	3804	3141.3	2952.7	3241.7	5287.8	5899.7	2205.2	1911.8	3765.9	4801.3	3916.3	1968.5	2707.2	3105.9	2109.1	2765	5074.2	4248.2	3285
200813_s_at	PAFAH1B1	5048	504.3	531.7	631.5	929.1	450.1	704.6	843.2	769.6	2096.8	502.5	740.7	372.6	993.7	801.8	573.6	921.4	705.9	2000.5	1223.5	860.8	935.4	441.8	452.6	700.6	569.8	818.5	551	974.6	126.2
200814_at	PSME1	5720	2043.5	2410.6	2415.5	1925.7	3812.8	1903.2	1507.9	1264.2	1760.6	1803.6	2167.7	2159.3	2622.4	1596.3	1704.9	1713.6	2200.7	1957.6	1610.9	2146.6	1351.1	4386.9	3619.1	2049.8	2502.4	940	3969	1837.8	3448.3
200815_s_at	PAFAH1B1	5048	1075.4	589.3	1547.2	1681	744.2	525.2	1109.8	557.1	1364	1402.5	1028.5	1334	1090	838.8	921.8	1200.5	1767.4	1003.8	1392.1	1235.8	2220.7	1327	521.6	2516.5	2101.4	867.9	1450.1	902.3	623.5
200816_s_at	PAFAH1B1	5048	769.4	655.6	805.3	1369.5	903.8	886.2	964.2	1085.4	2667.8	416.9	1199.8	478.5	1406	983.9	750.8	1285.8	1197.1	2608.7	1510.6	1027.2	1653.7	725.1	589.8	1139.1	1110.9	1045.7	792.5	1380	299
200817_x_at	RPS10	6204	31264	27717	26345	24191	33811	27475	31210	26147	23805	32250	22700	26175	22977	38623	25728	40393	21477	25804	22475	30271	22822	36468	33786	23675	35119	41328	35802	33087	47811
200818_at	ATP5O	539	5000.9	9501.9	6296.1	3908	9614.7	9764.5	10701	7711.5	13188	10435	5716.4	4495.2	4451.4	9462.8	8161.3	7401.8	5931.9	6976.3	6179.1	7583.8	5576.3	2248.1	4338.7	3342.9	2694.6	5287	4840.2	10599	5903.2
200819_s_at	RPS15	6209	17578	19852	20055	17160	26975	25314	21890	21899	22676	25814	17841	23046	16330	30844	20875	27254	18975	16678	19999	24397	19024	31783	27401	16045	19293	24950	21848	29011	35219
200820_at	PSMD8	5714	3651.5	3606.9	4764.5	4218.7	3512	1950.1	3318.4	3057.1	4757.1	4566.2	4197.5	1914.2	2284.2	3110.7	3637.6	2373.3	3825.6	2030.5	1878.3	2776.8	2659.4	1790.6	3096.7	4056.7	2430.7	2315.1	2104.4	1223.3	2490.5
200821_at	LAMP2	3920	626	215.6	829.7	713.1	517	546.7	270.9	516.9	225.6	168.6	549.1	793	1814.8	596	802.2	517.2	1224.2	568.1	138.4	264.4	983.6	914.7	968.8	1881.8	1466.9	663.5	987.8	125.6	573.3
200822_x_at	TPI1	7167	9356	7800.4	12315	10918	8854.6	9719.8	12470	8073.7	10508	13322	7062	7145.2	4922.6	5090.3	9892.5	8920.6	6271.1	6341.9	7625	7987.9	4611.7	16052	9292.3	9715.4	7594.8	5424	10727	7935.4	7780.3
200823_x_at	RPL29	6159	15729	9358.4	11894	9849.3	18950	12880	8416.2	8987	11851	14000	9709.2	13739	9258.7	23767	12063	19832	9921.2	2660.1	7982.9	11696	9132.6	13269	8884.8	4764.2	7740.5	25232	12190	9369.8	17185
200824_at	GSTP1	2950	8709.8	2224.3	5367.8	5412.3	4872.1	13552	105.8	1241.7	124.6	7805.5	5566.1	4725.3	2392.5	7779.8	8329.9	7659.4	6283	167.6	1796	5167.1	6491.2	222.4	7585.2	10338	6003.3	3087.9	6269.5	1842.5	4848.4
200825_s_at	HYOU1	10525	1924.3	1869.6	2845.4	1690.1	1605.2	2663.5	5451.3	2823.2	2017.8	2867.3	2649.8	3848.2	4120.8	6458.5	2963.6	5362.8	4050.4	4208.1	4230.5	5261.1	3994.1	12417	4552.3	3575.9	5047.9	7215.9	3088.7	2761.9	13802
200826_at	SNRPD2	6633	8523.8	8819.3	8534.7	9756.8	11263	9026	8576.9	10145	10740	15187	9936	5469.7	6089	10038	7606.4	10267	8684.8	7624.1	8097.5	10472	6853.4	7263.5	9844.1	10752	10733	6687.9	10301	5789.1	5430.3
200827_at	PLOD1	5351	481.2	479.5	1672.7	760	350.3	177.2	245.8	457.6	476.9	983.9	715.8	4878.9	361.1	2445	1637	503.8	1154.1	243.2	328.2	848.6	964.7	1434.5	504.9	691.8	191.2	576.2	1398.5	793	5357.1
200828_s_at	ZNF207	7756	5312.7	5052.3	6455.2	5583.6	5854.2	6283.7	4993	6099.4	6502.6	7208.6	4421.5	2946	2695.8	4263.4	4722.7	5279.4	4969	4702.7	7189.3	6318.3	4248.4	2637.6	6987.7	6495.3	6312.4	4797.3	5290.8	5982.8	2679.8
200829_x_at	ZNF207	7756	2308.7	2521.9	3053.7	2753	2492.2	2898.7	2024.6	2781.7	2632.2	2984.9	1947.3	1524.7	1413.1	1272	2214.8	2423.8	2079.3	2263.4	3224.8	2831.9	2090.9	1837	3605.9	2173.5	2300.5	2354.6	2887.4	2710.6	1395.8
200830_at	PSMD2	5708	6474.6	3576.5	5471.1	3144.8	2825.5	3837	5377.9	4184.4	2901.5	3007.7	1701.2	2909.1	4154.3	1178	2664	2588.3	5628.1	2709.8	3365.5	3091.8	6214.8	3070.5	2835.2	9776.5	6835.2	1318.5	5029.8	3997.8	2373.6
200831_s_at	SCD	6319	752.2	1290	1056	977.1	1504.5	731.5	5230.7	1104.9	1203.8	585	1312.3	547.1	3659.3	2526.5	1822.9	486.4	1574	268.3	1493.4	2026.4	5719.8	1084.2	1141.1	1828.3	3622.1	1316.8	89	1068.8	1139.3
200832_s_at	SCD	6319	1360.6	3024.7	1134.4	1479.4	2449.6	1500.4	5024.9	1802.6	2543.8	1182.1	2629.4	1447.1	4763.2	4606.7	2175.5	515.6	2871.7	404.8	2603.8	2211.4	7409.9	1700.2	1734.9	1459.6	4461.9	2427.1	75.6	1228	1534.2
200833_s_at	RAP1B	5908	1809.4	2087.2	2977.7	2959.3	2406.8	1977.2	1239.7	1929.3	2088.7	3526.3	2788.8	4994.8	2668.1	1451.3	2580.2	1931.8	1979.4	3173.8	2825.2	2587.7	2893.7	1559.3	2294.2	2401.7	2644.6	2337.9	2409.5	1745.4	881.5
200834_s_at	RPS21	6227	23167	19679	15416	16791	22538	17694	13962	23206	20772	23616	19979	22612	12255	23440	19460	26063	18975	19835	19582	17675	17301	28514	15128	15698	19279	31173	26336	25048	25221
200835_s_at	MAP4	4134	24.7	14.9	22.5	28.7	38.4	11.9	45.2	50.7	80.4	11.5	56	93.2	173.6	132.4	137.6	170.9	156.8	34.9	49	176.2	22.2	24.3	18.5	50.4	27.6	207.9	29.7	46.5	40.1
200836_s_at	MAP4	4134	441.3	246.5	553.6	615.5	496.7	421.8	471.3	562.7	626.3	231.6	347.8	1003.4	938.6	998.2	740	994.1	714.6	436.7	427.5	842	646.6	702.7	414.3	472.9	449.5	801.8	501.6	486.1	576
200837_at	BCAP31	10134	6181.4	3758.5	4143.9	3510	3209.5	1714.1	1525.4	4915	1678.9	3635	3627	2194.3	3511.9	1264.7	2161.4	2561	5931.2	3373.6	1603.6	2862.4	4106.7	10068	7965.5	5016.2	7257.6	2745.9	6699.4	2311.3	5000.6
200838_at	CTSB	1508	699.4	33	4875.8	2881.5	256	447.1	495.9	139.7	482.6	991.7	2635.4	6822.4	4838.7	612.3	752.9	994.3	5276.4	676.7	580.9	1143.5	1003.9	3849.7	2254.9	6329.6	1591.8	729.8	3423.5	363.7	4042.9
200839_s_at	CTSB	1508	1764.4	54.5	9872	5752.7	398.8	1278	1612.3	246.4	799	3030.1	4372.9	15854	7737	1960.7	1863.9	2425.7	7727	1828.7	1132.2	2623.5	2441.7	8468.3	5499.1	12676	3150.3	1658	7558.1	969.3	9005.2
200840_at	KARS	3735	6428.3	7990.8	10899	7626.1	10312	6886.8	7001.6	6291	6355.6	12372	6268.1	4977.3	6498.4	6603.7	7958.6	7852.6	5702.9	4075	7640.1	6860.6	5483.3	10089	5182.5	6760.6	4859.3	6041.5	9019.4	7244	3633.1
200841_s_at	EPRS	2058	1151.7	1522.3	798.3	606.1	1136.4	957.8	1082.2	777.1	795.3	736.1	734	219.1	691	1003.4	703	3994.8	899.2	322.9	1224.1	2125.4	868.8	196.7	452.7	1056.7	1685.4	1146	547.2	2179.5	1159.6
200842_s_at	EPRS	2058	1868.4	3381.5	1789.6	1592.1	2274.1	1714.8	1976.8	1862.8	1508.7	1632.7	1605.2	1091.8	1242	1765.1	1325.1	7248.1	2589.5	946.5	2706.4	4006.3	2714.7	555.3	1135.9	1730.5	3263.2	2621.3	969.3	3407.4	2852
200843_s_at	EPRS	2058	1704.1	2752.3	1627.7	1560	1748.1	2209.6	2036	1785.2	1693.7	1980	1320.8	1111.6	1616.5	2191.4	1303.4	5568.5	1897.2	695.9	1880.5	2952.9	3189	780	1130	1659.5	2579.5	2217.5	1256.9	3319.9	2372
200844_s_at	PRDX6	9588	4705.1	6637.5	4615.6	4740	4529.9	6969.2	3853.8	2834.6	2398.2	6041.4	5122.7	5942	7702.3	3547.8	6014.4	3821.9	4723.1	1473.3	3632.8	5166.5	8670.8	4267.1	3631	9371	8227.8	7873.8	4289.9	4600.7	5434
200845_s_at	PRDX6	9588	2951.2	4459.5	2625.7	3074.9	2785.1	3488.7	1794.3	2436.4	1497.1	3201.6	2924.3	2145.8	4251.2	1954.4	2838.4	2588.4	2421	1077.5	2599.4	2741.9	5460.2	1829.7	2371.3	4227.5	3438.8	4179.5	2427.8	2432.6	1791.9
200846_s_at	PPP1CA	5499	3779.3	3463.4	4440.8	3436.6	3354.7	2765.1	2395.4	1829.7	2130.5	3867.9	2446.6	1258	2131.3	1458.6	3151.8	2790.5	1749.2	1896.6	2223.1	2750.5	1833.5	2480	3721.8	2113.8	1551.5	1719.5	2563.4	1235	2033.9
200847_s_at	SARAF	51669	1184.1	3625.5	2565.4	2474.7	1979.1	3705	3695.1	1338.1	1550.9	3553.7	2951.6	2287.1	2516.1	1599.3	1125	4462.8	1991.5	3086.4	2290.6	2780.2	2798.8	2031	1450.1	1745.5	1714.6	1599.9	1516.5	1173.5	3538.2
200848_at	AHCYL1	10768	744.3	1146.8	1002.1	659.7	525.9	874.3	612.7	872.1	715.2	679.7	1424.6	3770.5	1220.2	1747.7	1707.5	1032.5	1416.6	1204.5	1551.6	2182.6	943	1369.7	648.6	1669.3	2128.7	2539.1	1365.6	1513.7	1272.8
200849_s_at	AHCYL1	10768	768.2	1091.8	1321.1	973.2	654.9	1094.9	825	1302.6	1161.9	955.5	1414.4	3655.1	1307	1779.6	1419.6	985.6	1504.9	1435.8	1342.3	2305.6	876.8	2116	1037.3	1609.6	2114.7	2190.4	1633.8	2072.5	1208.4
200850_s_at	AHCYL1	10768	2737.7	3161.2	3540.7	1749.1	1964.3	2562.7	2161.9	2482.6	2426.3	2108.7	2701.9	5449.3	2391.5	3615.2	2710.3	2279.6	2477.1	2990.3	2896.6	3848.9	1274.8	2859.3	1806.1	3208.7	4324	4868.2	3056.4	3753.3	2504.3
200851_s_at	IST1	9798	1812.5	2978.7	2409.7	1834.2	1963.2	1565	2268.6	1345.9	2039.9	2777.7	2265.8	2624.9	2015.9	2812.1	4099.3	3290.3	2168.5	2173.4	2763.3	2199.5	1718.1	6022.6	2095.8	2922.1	2368.4	1878.5	2719.3	2047	3672.2
200852_x_at	GNB2	2783	1576.5	2423.2	1165.8	1602.4	1223.9	1243.3	2506.6	1433.7	1550.5	1084.8	1228.8	2533.7	1708.8	1818.7	2360.2	1466.1	3018.8	2428.7	1106.8	1154.5	1065.3	9389.5	1580	1794.2	1173.1	1860.7	1178.1	867.5	5593.3
200853_at	H2AFZ	3015	7584.4	10340	7180	8492.7	11813	9728.8	10884	8283.4	9515.6	13188	5579.1	4353.6	6197.9	7208.8	8733.9	8697.1	6270.2	5865.1	8735	8037.4	6052.7	4109.4	7732.3	6133.3	6997.6	5070.7	7123.5	6958.5	3517.3
200854_at	NCOR1	9611	371.7	437.1	682.2	946.2	520.2	521.8	368.8	471.5	1350.2	207.7	563.3	422.8	713.7	725.7	670.8	603.1	464.2	658.9	800.9	629.4	797.3	528.2	346.3	847	688	586.3	305.7	573.5	421.6
200855_at	NCOR1	9611	119.3	125	135.1	218	200.3	160	100.7	121.7	324.5	77.2	153.4	204.1	236.9	298.3	161.5	130.3	149.4	218.5	196.1	179	180.1	193.5	103.1	158.8	255.3	324.2	121.1	225.9	223.5
200856_x_at	NCOR1	9611	120.8	96.3	86.5	202.8	198.1	143.9	175.7	132.5	324.2	119.8	178.2	209.8	306.8	251.1	172.7	128.8	146.7	182.7	187.6	193.2	173.9	249.6	129.1	246.4	334.9	219.2	132.6	216.7	167.6
200857_s_at	NCOR1	9611	486.6	440.9	648.6	982.9	589.1	608.4	460.1	506.3	1064.6	298	597.2	750.6	853.8	894.4	566.3	724.1	754.7	660.7	662.5	689.4	815	686.9	395.6	732	853.2	835.5	460.4	621.4	612.8
200858_s_at	SNORD38B///SNORD55///RPS8	94163///26811///6202	11407	14509	11167	7828.7	14648	9419.9	7848.8	10861	15257	19522	11412	14545	7904.3	17298	10239	17811	9538.5	4173.6	10203	12997	7742.9	9855.5	9089.3	6184.1	6707.4	18844	6834.5	12890	12730
200859_x_at	FLNA	2316	1477.8	1251.7	1628.2	6176.8	1640.1	828.3	140.9	1638	1077.5	322	2670.8	5640.6	3701.7	939.7	1328.7	1557.6	3578	823.5	926.5	1331.4	3874.2	6121.8	2767.8	3632.8	1541.6	2823.6	2371.6	1737.1	2303.6
200860_s_at	CNOT1	23019	1927.6	3356.2	2901.7	2533.7	2623.2	2686.4	3163.8	1567.1	2406.3	1191.9	2551.9	1943.6	2760.1	3987.3	3873	2508.5	2722.6	2408.8	3089.5	4105.5	2638.5	3627.6	2367.9	3171	2550.8	2258.2	3197.5	2721.8	2907.8
200861_at	CNOT1	23019	449.4	875.1	695.1	745.6	572.5	801.8	792.4	576.8	693.6	318.1	707.2	522	726.3	999	1062.8	1176.9	614	591.9	908.4	1089.2	645.5	943.6	681.9	529.5	557.9	569.3	677	763.9	924.2
200862_at	DHCR24	1718	2852.3	2731.4	1177.9	646.6	1536	1391.6	2532	2335.4	2620.4	1775.2	494.6	745.2	2482.5	782.3	823.7	1293.6	556.1	1087.9	2035.8	1646.7	2392.8	834.1	1746.6	4921.4	1479.3	703	3274.5	1856.9	995.3
200863_s_at	RAB11A	8766	6286	2890.5	3905.5	4848.5	5283.7	4171.5	7566.1	3171.2	4024.8	4411.6	6421	3525.7	3763	3060.8	4646.4	3225.3	3630.7	6953.1	3815.6	3192.6	3569.3	5502.1	3655.1	3844	4742.2	3465.5	7123.3	4939.3	2651.6
200864_s_at	RAB11A	8766	492.6	355.7	402.7	621.1	371.4	533.3	549	525.2	529.9	475.1	793.6	327.6	562.3	543.6	659	571.4	343.7	789	718.5	448.6	668.5	491.2	392	324.4	313.1	270.8	542.5	360.6	255.7
200865_at	EIF3F	8665	6.7	8.1	8.2	1.5	11.8	2.4	16.9	3.1	4.7	2.9	1.4	15.7	8.5	5.6	8.1	19.7	1	1.7	1.2	4.8	6.6	3.1	1.7	5	19.8	6.2	27.2	4.6	3.5
200866_s_at	PSAP	5660	5192	2580.1	2844.7	5568.4	4899.3	2127.9	2867.3	2001.2	2496.3	2278.8	7748.2	13812	7638.2	3493.7	3036.8	4324.1	7110.9	3338.6	2207.9	2809.3	6890.4	8668	8875.2	9387.5	7415.1	6359.7	5633.1	5574.5	13927
200867_at	RNF114	55905	896.7	778.2	664.2	673.4	427.6	539.8	670.6	939.1	859.7	578.2	696.1	988.4	667.2	536.6	842.4	785.9	554.7	1419	1026.7	656.2	947.9	752.2	531	858.7	689.3	1491.2	1484.1	1424.2	541.1
200868_s_at	RNF114	55905	1743	810.2	1090.9	994.3	948.7	973	922.2	1084.8	1092.7	848.9	884.5	1602.1	984.6	949.6	1001.7	850.3	994.4	1435.8	1089.7	973.2	1100	1759.1	1208.4	1597.6	1820.7	1746.2	3275.5	1379.4	1252.7
200869_at	SNORA68///RPL18A	26780///6142	23132	17711	15830	12662	27268	17154	13252	15339	21529	23210	16204	19529	10842	35210	16080	20851	11347	4023.2	12910	17240	9670.1	20807	12148	9333.5	14769	27766	15852	21595	29781
200870_at	STRAP	11171	5573.3	6525.3	8412.9	7427.1	5430.1	7817.3	5312.6	5065.7	5400	5822.3	4250.5	3899.9	3261.8	3516.8	4507.6	5604.5	4305.6	5476.7	4741	4093.6	3879.3	4638	5178.2	7922.6	5555	3780.6	4500	3361.6	2688.4
200871_s_at	PSAP	5660	8417.1	3724.5	3700.5	8877.6	8601.7	4108.2	4627.8	3169.7	3557.6	3174.3	11682	22524	11765	6064.9	4823.8	6476	11328	4192.5	2477	3580.7	13736	19398	15110	16481	10134	10058	11258	7280.5	21606
200872_at	S100A10	6281	13435	13.7	8078.1	17065	3229	894.8	1473.8	188.7	531.3	635.1	8704.7	5832	9959.1	194.1	257.6	280.8	13080	1590.6	96.4	140.7	18905	7419	9675.1	12812	3102.8	3803.1	10278	87	41.9
200873_s_at	CCT8	10694	3912.4	4929.8	6092.3	4319.5	7072.4	6136.6	9339.3	7141.7	10544	10068	5085.3	3263.1	3490.3	4009.7	5812.4	6791.3	4067.7	6713.3	6088.7	7036.1	3995.9	2033.3	3481.4	2459	2879.8	6155.1	4032.5	7213	2199.2
200874_s_at	MIR1292///SNORD110///SNORD86///SNORD57///NOP56	100302138///692213///692201///26792///10528	335.1	676.6	594.5	523.2	614.7	560.3	467.9	908.6	626.2	690.2	353.7	312.6	378.4	539.3	460.6	391.5	427.9	659.5	591.1	678.6	575	368.6	313.7	412.5	453.3	623.8	408.5	835.2	320.2
200875_s_at	MIR1292///SNORD110///SNORD86///SNORD57///NOP56	100302138///692213///692201///26792///10528	1692.7	4816	4768.8	3833.7	3701.7	3001.6	3154.4	5836.6	4281.5	5972.9	2809.4	1309.8	1414.3	2183.7	3088.5	1670.9	2065.5	4516.9	4956.4	3432	4228.8	1257.6	1455.2	1527.9	1539.9	2685.3	3353.6	4076.3	727.4
200876_s_at	PSMB1	5689	4438	6172.4	4233.6	3903.6	5178	6049.9	10553	6235.2	5552.2	9824.9	4043.7	4283.4	5502.5	3505.7	5489.2	5676.8	4925	3754.6	5846.8	5899.7	4497.8	2265.8	4563.7	3794.4	3836.2	2550.4	4146	5159.2	2269.5
200877_at	CCT4	10575	13691	11411	13407	10474	11208	11403	9309.8	8165.1	7818	11145	7894.1	6505.6	6706.3	10500	9833	10544	7408.8	5469.5	6775.8	8889.7	10592	5428.8	7104.1	12059	11288	8570.3	12863	7682.5	7439.3
200878_at	EPAS1	2034	2277.7	12.2	258.2	3138.4	697.1	328.7	5.4	2.9	35.6	93.8	3877.1	2020.8	581.5	243.1	178.3	3.2	724.8	4.9	47.9	30.5	4002.5	3398.2	773.9	865.9	1554.1	4170.9	1799	7	78
200879_s_at	EPAS1	2034	364.2	25.7	65.1	405.6	141.5	86.6	29.9	9.2	38	50.2	557.9	206.1	147.8	56.3	34.4	50.9	137.3	68	40.9	74.5	531.2	287.1	141.4	186.5	301.3	698.1	352.6	20	71.4
200880_at	DNAJA1	3301	1547	2103.8	4355	3151.4	1551	3141.4	4578.7	4007.8	4385.8	2595.3	2600.6	1939.7	2310.9	1422.4	1911.6	3042.3	1436.4	3875.5	2470.1	1522.8	1545.4	1555.6	2356.1	1933.7	1309	1479.8	1120.2	1625	587.8
200881_s_at	DNAJA1	3301	4838.9	4608.7	8522.5	6307.6	4732.8	7043.2	8586.5	6023.5	6579.8	6713.8	5319.1	4465	5305.4	1968.6	3071.4	5329.6	3410.6	7136.2	5145.2	3092.2	3319.8	2481.8	4314.8	3310.7	2270.8	3136.1	3398.1	2504.5	1510.6
200882_s_at	PSMD4	5710	3641.7	3790.2	3608.9	4047.7	3920.7	4601.2	3580.8	2775.7	2998.5	6696.9	3316.4	3117.8	4943.4	5586.3	8788.9	3442.9	2953.3	2355	3772.5	4106.1	3956	2643.7	3252.9	5795	4400.3	4330.6	3500.8	5353.4	4881.8
200883_at	UQCRC2	7385	2058.5	2230.7	2304.5	1983.9	3639.1	2204.4	2558.8	2638.7	3105.1	2729.1	4153.1	1331.5	1272.4	2019.5	1929	2784.7	2836.9	1036.4	1902.2	2349.2	1630.5	653.7	1241	980.6	2164.2	2586.3	3789.6	2912.1	1948.3
200884_at	CKB	1152	677.1	1751.8	283.5	276.9	518.3	2312	4890.4	3063.4	2698.3	2907.1	699.4	460.4	439.2	677.3	1377.5	1942.6	630.6	3134.1	4106.1	2068.3	185.9	272	222.3	386.1	221.7	1668	1652.3	5196.6	668.1
200885_at	RHOC	389	3667.5	378	4006.2	3051.5	2118.4	598.8	131.3	136	490.8	2528.4	1637.4	4315.5	1352.6	1125.4	1374.4	931.9	1594.5	557	470.9	915.6	3487.6	6325.9	4725	2669.6	2897	1497.1	513	360.5	4337.9
200886_s_at	PGAM1	5223	7508.6	10101	11429	10804	16777	7782.4	8748.9	4741.1	8418.1	14609	7949.1	6151.3	6384.8	8808.8	12830	12089	9545.3	2185.8	7405.6	9755.5	7192.2	6161.1	7781.6	7484.7	6658	5217.5	13652	9771.7	4283
200887_s_at	STAT1	6772	943.7	805.3	1872.3	1939.3	1187.2	758.8	646.5	1339.8	677.6	568.8	1839	2742	2036.8	1375.7	1956.4	880.8	1692.2	1735.9	647	768.2	871.4	1492.6	1103.8	2137.7	1351.3	951.5	1292.1	959.1	1087.4
200888_s_at	SNORA21///RPL23	619505///9349	14638	15130	13563	13681	17720	17404	14013	15841	13308	19483	14129	14003	10828	26054	14733	21961	11118	7595.7	13739	16521	9506	11661	16961	11394	15749	20572	14375	17945	15499
200889_s_at	SSR1	6745	1220.9	2493.3	2545.8	816.1	1820	522.8	2494.1	863.3	658.6	1406.9	1385.3	695.7	1083	467.1	1200.9	1537	1307.8	996.6	1007.8	927.5	1218.6	325.2	1936.5	1285.2	1460.4	1705.2	1165.9	1109.3	782.7
200890_s_at	SSR1	6745	421.3	1202.1	1360.4	493.4	817.9	367.9	1387.6	549.4	331.5	496.5	804.4	276.5	431.2	409.3	708.2	941.8	522.3	287.6	531.2	540	584	166	763.5	465.5	547.8	1085.1	401.9	664.5	486.3
200891_s_at	SSR1	6745	1513.1	3781.9	3703.4	2197.1	2407.1	1399.3	4535.7	2377.5	1646.7	2255.1	3186.4	1317	1722.9	1466.8	2371.2	3534.7	2274.8	1573.3	2342.2	2671.1	2046.7	1162.3	3836.8	1797.8	1410.4	2595	1672.7	1615.3	1219
200892_s_at	TRA2B	6434	2329.3	3008.6	2648.6	2001.6	2586	3287.3	3294.8	2396.9	2708.8	3944	1316.9	1355.1	1691.6	799.9	1625.3	2341.9	3066.8	2888.4	3587	2783.5	3251.9	1271.9	1812.9	2628.8	3375.7	1770.6	2695.8	2976.6	870.4
200893_at	TRA2B	6434	4134.2	5854.1	5793	4560.8	6060	5903.9	5158.5	5651.9	6704.4	7098.2	3608.8	2805.9	3518.3	2641.7	3986.6	4813.2	5004.8	5716.5	5266.4	4675.7	6259.7	3871	3489.2	3702.5	4838	3765.4	4351.9	5723.7	1411.9
200894_s_at	FKBP4	2288	779.7	1324.1	2640.5	1291.5	869.8	1224.5	947.7	1744.2	1478.6	2113.3	817.1	572.6	724.3	793.9	1804.9	473.9	582.4	773.1	1404.4	1185.6	897	1465.2	402.2	1504.5	1235.3	632.3	614.9	1053.6	701
200895_s_at	FKBP4	2288	1594.8	2652.2	4435.5	1864.9	1652.4	2149.8	1739.1	3067.7	2759.9	2947.1	1297.2	1032.6	910.8	1421.9	3071	1089.1	1452.6	2136.4	2559	2004	1757.1	3213.1	1117.8	2442.4	1841.1	1185.5	1082.7	2265	1334.2
200896_x_at	HDGF	3068	5541.2	5026.5	4359.1	5510.3	5358.9	6470.7	4169.2	6182.3	4930.6	5401	3835.1	3838.2	6392.2	3363.1	5586.9	7062	4018.1	3489.4	6428.1	5874	6556.6	5319.5	4944.6	7386.8	7135.6	3873.1	6020.7	6245.1	3818.8
200897_s_at	PALLD	23022	1929	347.2	535.7	3922.7	662.8	2138.8	1135.9	390.9	601.8	319.8	1707.1	2165	2194	140.2	142.9	149.6	1637.1	821.3	920.5	1144.9	1061	2321.9	2473.2	3882.2	1370.9	2822.2	1187	387.8	370.8
200898_s_at	MGEA5	10724	519.8	551.9	845.4	735	952.6	500.1	540.2	497.8	626.6	306.4	707.1	998.1	1289.2	1148.1	935.8	1067.7	1263.3	938.3	839.1	1109.3	1010.4	1268.2	802.8	883.1	1298.1	1153.9	800.2	714.7	961.8
200899_s_at	MGEA5	10724	618.2	706.5	716.7	686.1	959.7	794.3	542.9	824.6	761.6	193.1	820	1072.1	1426.1	1404.1	1102.8	1401.1	1207.7	1414	970.5	1121.7	971.8	1651	668	603.9	817.5	1478.9	649.8	1117.7	1081.2
200900_s_at	M6PR	4074	1439.8	976.4	2452.9	1787.9	1688.2	1009.5	1684.8	915.9	449.8	1104.9	1153.4	714.6	1664.4	1332.4	2618.7	893.9	1242	1066	948.1	1095.3	1165.2	1273.3	1344.2	2948.1	1867.5	1182.4	2085.4	1320.4	758.4
200901_s_at	M6PR///PHC1	4074///1911	1455.4	1123.5	2261.8	2029.5	1653.1	1354.4	1552.5	1181.6	761.3	1488.6	1311.2	1264.9	1851.2	1633.1	2481	1065.2	1427.9	996.1	980.7	965.5	1478.5	2202.4	1697.5	2777.9	1824.1	1564.7	2343.4	1214	1334.9
200902_at	SEP15	9403	2548	2656.5	2336.7	1554.1	1983.3	1751.4	1589.3	2178.8	2311.9	3428	1898.6	1486.3	2084	1003.2	2099.4	2946.2	1394	1690.8	2096.7	1702.7	1858.6	790.7	2272.2	2250.6	1924	1425.5	2120.5	1864.7	736.9
200903_s_at	AHCY	191	4482.1	3714.7	3149.8	4862.5	3988.8	2573.3	4270.7	4513.6	5396.4	5333.3	3772.4	2064.2	1041.9	5877.5	4212.9	6823.6	2631.5	3871.6	3776.5	3834.8	3423.8	5331.3	2539.4	3489.9	4285.9	2935.4	6714.6	4093.1	6911.5
200904_at	HLA-E	3133	210.4	10.1	190.6	197.9	273.6	24.2	6.2	8.2	9.1	183	356.4	1024.8	1053.4	463.1	457.3	256.8	260.2	26.5	42.6	154	240.8	1706.1	366.7	316	353.8	278.8	379.4	130.1	583
200905_x_at	HLA-E	3133	1909.4	222.6	1711.5	1198.1	3415.1	427.9	359	196.7	270.7	787.4	1620.5	2930.2	3592.1	1411	1969.4	1651.5	1541	313.7	274.9	433.3	1404.1	5241.2	3672.5	3047.8	3254.9	1387.8	2495.4	509.1	2998.4
200906_s_at	PALLD	23022	440.4	100.1	102.2	1292.6	138.1	395.3	367	145.4	158.4	97.9	559.3	417.9	531.2	111.3	58.8	86.9	336	251.2	175.6	336.3	175.1	223.8	504.9	974	298	656	234	134.5	134.3
200907_s_at	PALLD	23022	1260.3	209	302.3	2740.5	340.2	1133.7	649	276.3	363.5	230.7	1260.7	1472.6	1482.2	201.9	150.5	96.1	1306.3	553.9	751.6	964.8	625.9	1129.2	1660.5	2422.6	913.1	2230	792.7	240.9	317.8
200908_s_at	RPLP2	6181	100.2	58.2	74.3	71.4	46.2	57	88.7	125.8	79.5	116.2	86.6	15.5	135.7	134.5	126.4	123.4	113.1	22.5	83	88.9	92.7	118.5	181.8	19.2	149.5	68.8	148.5	120	28.6
200909_s_at	SNORA52///RPLP2	619565///6181	10348	13084	12042	14475	22258	14958	12984	18540	17002	22531	18836	18629	18461	20685	14472	23416	20659	7550	13850	21335	12261	16456	14887	6156.3	13933	22059	16362	17749	22401
200910_at	LOC101927137///CCT3	101927137///7203	6350.3	8451	7341.6	7473.8	7877.2	10209	7446.6	8178.5	7331.9	13763	6272.7	5120	6267.5	4733.4	6180.6	8958.9	4840.5	5008.1	9089.5	9056.9	6468.8	2706.8	4637.1	6119.2	7618.8	5892.5	5129.9	9022.1	4163.4
200911_s_at	TACC1	6867	822.9	1314	1631	1829.3	2457.3	1275.7	739	494	911.6	597	1191	1669.6	1710	930.2	719.3	1146.1	1335.1	903.5	1026.7	1065.3	1901.4	818	814.8	1175.4	840.5	1250.3	1062.8	1411.2	1339.1
200912_s_at	MIR1248///SNORA81///SNORA4///SNORD2///SNORA63///EIF4A2	100302143///677847///619568///619567///6043///1974	7919.1	7150.1	6642.1	2802.8	6440.3	10531	9057.4	10402	9893	7365.5	8903.9	10079	7488.4	8635.9	5406.8	12729	12137	10064	7455.3	5845	8544.5	8917.7	5944.2	7758	11572	7330.4	10575	12009	5466.4
200913_at	PPM1G	5496	845.7	1201.6	892.5	919.9	1025.4	986.8	902.8	754.6	861.8	901.5	827.5	673	407.4	464.7	856.7	1031.2	550.2	695.5	1208.4	943.3	1433.4	3205.5	748.1	877.6	1018.4	728.9	1154.1	1061.9	601.5
200914_x_at	KTN1	3895	760.8	621.7	727.1	808.7	660.6	613.8	950.6	493.2	962	604.6	783.4	994.9	710.3	543.4	512.2	560.1	939.6	718.6	528.4	355.2	382.7	438.7	1109	842.4	849.1	994.7	730	628.9	331.9
200915_x_at	KTN1	3895	2306.9	2152.4	3036.6	2806.7	2685.2	3016.5	3257.8	1829.9	3323.8	2631	2996.4	3695.3	3002.2	2509.6	2773	2627.9	3416.1	2688.4	2009.6	1602.5	2056.6	2211.4	4046.7	3952.7	3500	3266.5	3688.5	3127	897.6
200916_at	TAGLN2	8407	4085.6	5019	5381	7223.8	7361.9	5859.5	178.7	4256.3	2688.2	4687.3	5785.9	7120.1	4733.3	378.2	1454	3877.4	4658.9	7327.5	4440.1	2874.5	5825.4	10325	7691.4	9635.2	9149.8	2833.8	7654.6	3890.7	1758.1
200917_s_at	SRPRA	6734	246.3	421.9	586	284.9	628.6	392.1	689.6	461.6	214.5	815.4	722.3	469.3	860.1	824.9	682.6	856.2	436.1	725.4	946.5	1363.4	908.8	656.6	1085.8	955	941.4	630	712.9	538	953.5
200918_s_at	SRPRA	6734	1012.9	1434	2082.8	1345.8	1573.6	1648.2	1760.1	1574.3	1001.7	2251	2414.4	2656.6	2567.2	2433.7	1931.3	2715.7	1692	1829.3	2547	3666.2	3313.9	4561	3392.3	2910	2828	2162	2371.2	1828.1	3746.5
200919_at	PHC2	1912	1206	2276.3	1864.5	1308.5	749.3	1030.1	720.3	1258.1	1732	793.3	755.5	2798.3	1580.6	856.9	951.9	775.7	673.6	2108.1	1814.9	1127.6	600.3	2360.6	1443.6	706.6	689.2	1063.2	783.2	2096.8	1240.2
200920_s_at	BTG1	694	3804.9	1281.9	1889.8	3174.5	3044.8	3438.2	2767.3	1233.1	1117	356.6	6058.3	3393.2	921.6	883.7	734	10042	798.3	2204.6	1274.1	376.7	2117.9	5955.4	2106.9	2361.5	4720.5	2051	1816.2	884.3	2361.4
200921_s_at	BTG1	694	1908.5	696.6	1015.3	1540.9	1534.3	1412.4	1568.4	1029.9	913.5	304.6	3457	1876.2	562.5	426.7	570.5	5247.6	574.8	1481.7	851	214.8	1585.8	5160.2	1053.3	1225.7	2799.7	1303.9	886.9	475.3	1294.8
200922_at	KDELR1	10945	935	976.7	1042.1	1490.9	780.5	631.5	766.1	668.3	1141.1	752.7	2450	1510.3	895.2	1209.9	1065.4	1342.2	1110.3	562.7	727.1	1209.5	1255.2	2139.1	1375.9	1357.2	1347.6	707.8	723.9	560.4	1989
200923_at	LGALS3BP	3959	4978.8	4424.1	67	3276.7	692.5	2121.8	1604.7	1996.4	2391.2	723.6	5764.6	10420	6401.6	939.1	186.7	2433.5	2845.8	945.1	2002.3	1751.7	1607.6	6017.6	13373	5785.1	6751.2	156.2	7642.1	1470.2	7412.2
200924_s_at	SLC3A2	6520	1873.9	915.4	2023.3	3607.6	803.5	1623	2706.4	1143.9	693.3	1019.8	2095.8	1608.4	1327.8	1291.8	1061.6	1401.7	4184	830.1	863.1	933.6	1376.8	7095.7	1548.2	4600.7	3841.4	3888.5	1590.6	1028.2	3236.7
200925_at	COX6A1	1337	12439	11887	10259	11291	12355	17621	18874	16174	17846	18317	13892	8935	6701.1	11150	12565	14854	11373	19884	12922	15369	8196.5	18887	12523	14292	11196	7888.2	16023	15303	16720
200926_at	RPS23	6228	23264	20582	18296	20082	31761	22470	19334	19231	24972	29088	25479	22631	16996	33598	22704	32344	18593	10427	19287	26853	15900	23464	23452	16298	23916	33319	22049	25270	22109
200927_s_at	RAB14	51552	1218	1474.9	1560.7	836.3	931.5	1177.9	1408.6	1158.5	1224.4	652.9	766.5	814.7	1404.8	712.1	976.5	1041.9	1407.7	1490.7	1104.2	1017	1077.3	558.5	1214.2	1517.2	1141.5	1319.6	877	773.8	585.5
200928_s_at	RAB14	51552	38.2	47.2	30.5	28.1	40.1	67.3	35.9	72.3	56.1	43.3	39.9	78.7	61.9	39.6	48.8	71.8	65	87.6	39.2	53.4	54.5	54.4	48	34.6	42.6	69.3	40.3	44	72
200929_at	TMED10	10972	5118.7	1870.1	3449.2	2596	1938.2	1133.4	4234.5	1177	873.6	1587.8	4713.7	1625.5	1858.6	969.9	1091	2688	2245.1	1895.6	1219	945.3	2823.8	2876.1	3140.7	3003.5	3504.1	2586	3846.2	1314.9	1432
200930_s_at	VCL	7414	48.6	30.1	32.6	46.3	11.4	37.9	13.3	53.7	46.6	62.8	55.8	105.5	69	21.1	48.5	10.8	16.3	64.8	23.2	9.2	35.5	14.3	9.6	9.5	28.3	48	57	59.7	21.7
200931_s_at	VCL	7414	3656.8	873.5	2679.5	5213	1434.7	877.1	776.6	752.8	1322.8	978.1	2314.2	5350.2	4447.8	854.8	1348.8	2091.6	2591.7	618.4	663	882.7	3739.3	4170	2794.9	2728.2	1486.4	3648	3971.2	1170.5	1807.8
200932_s_at	DCTN2	10540	816.1	1871.5	2114.4	1730.1	1366.2	1551.9	2481.7	1506.4	2176.3	1439.4	1357	2071.6	960	1421.7	1830.2	1737.3	1369.3	2516.7	2130.4	2446.8	1634.7	3379.5	1361.9	1855.7	1497.1	1363.3	1547.4	2354.4	1920.1
200933_x_at	RPS4X	6191	15495	11529	14730	15966	21091	15766	11257	23094	17424	15604	17949	18834	15843	25223	15063	21081	16908	13022	12004	14900	12094	18125	22667	17026	19379	19908	11511	18998	18651
200934_at	DEK	7913	3996.6	4472.7	3857.7	2810.2	3342.8	3527	5075.5	4030.8	3585.3	4467	1927	1575.1	4828.3	2863.3	4019	2427	2059.3	4602.5	3235.9	3998	3640.4	954	3777.9	2752.1	3572.6	3405.2	2882	3665.7	921
200935_at	CALR	811	764	419.7	770.8	554.6	467	280.2	350.3	675.7	378.7	2081.7	685.8	1289.9	1625	2272.2	1410.9	579.5	797.5	704.6	1022	1544.1	1227.1	4054.4	539.7	536	795	1145.2	1102.2	803.1	2099.4
200936_at	RPL8	6132	22235	25458	19217	16388	21384	20513	11294	35867	14169	24452	17503	15105	15490	23550	20826	25177	22405	6708.3	14010	19358	17469	29790	19346	11502	12211	21953	19264	15328	42384
200937_s_at	RPL5///SNORD21	6125///6083	12864	11970	13918	8024	15944	10327	7226.6	10755	9451.3	13032	9578	11431	7719	16697	10503	16368	8166.8	4775.8	8140.6	9093.8	7400.6	8841.4	11685	6367.1	8777.1	18489	9654.7	14595	12129
200938_s_at	RERE	473	24.4	2	5.2	2.8	5.2	5.4	7.5	8	10	3.5	29	11.6	25.3	9.3	19.3	32.9	19.6	13.2	2.5	6.7	9.4	9	16.1	3.1	6.3	9.3	5.3	4.7	6.5
200939_s_at	RERE	473	11.2	119.4	54.2	35.9	22.6	158.1	8.1	232	106.5	5.6	57.4	100.5	62.3	174.6	192.8	48.4	106.2	260	183.8	120.1	53.2	33.9	49.2	96.1	8.4	29.2	89.6	166.3	134.8
200940_s_at	RERE	473	266.1	782.6	390.2	497.9	459.5	1423.2	322.1	1781.4	997.1	140.2	539	1119	759.8	1235.6	1261.2	584.1	943.1	1629.8	1179.2	702.2	879.4	1010	752.4	706.2	417.7	563.5	806.3	1280.2	1722.2
200941_at	HSBP1	3281	857	2957.3	2020.2	1697.1	753.5	1523.5	1569.6	2622.3	3999.4	2309.5	1186.6	477.7	1030.3	1000.7	2271.8	1957.6	954	3596.4	2432.6	1904.2	804	1464.5	1097.5	1073.8	1128.1	988.3	1127.4	2326.3	554.9
200942_s_at	HSBP1	3281	3737.5	6319.6	7048.9	4807.6	3323.9	4589.5	5977.4	3720.2	5115.9	5407.5	4975.6	2433	2806.6	2807.6	6628.3	4423.2	4296.5	5828.8	5003.8	3988.6	2908.2	3972.5	3715.7	5927.1	5770.1	2405.3	7754.2	4496.9	2148.5
200943_at	HMGN1	3150	5732.9	3522.5	2979.2	6511.2	8244.7	3171.4	3850.5	6163.3	3818.3	2696	5661.2	2617.6	2614.5	2526.5	3165.3	3749.5	2418.8	4048.6	3227.5	2574.7	2090.9	2309.8	3563.3	1375.4	1270	2238.1	1683.9	2342.5	1557.4
200944_s_at	LOC101927733///HMGN1	101927733///3150	5045.2	6038.4	5749.6	4840.4	6871.9	8889.5	7223.8	6989.1	9538	8153.8	3588.2	3764.6	5554.7	4504	6671.4	5953.6	4547.4	8510.4	6145.4	5340.1	5980.7	3583.5	5632.8	3667	3009.8	4740.7	4202.1	5354.3	3652.3
200945_s_at	SEC31A	22872	1169.2	1317.1	2191.4	1783.3	1745.7	1118.7	1597.7	2042.5	1899.7	1708.1	2117.4	3488.2	1717	2288.8	1647.2	3120	2703.4	1541.3	2101.9	1640.1	2331.9	1817.4	2753.7	2591.6	1900.7	1977.3	794.8	2151	2078.9
200946_x_at	GLUD1	2746	990.2	960.8	1240.6	1607.7	1561.9	675.4	917.4	959.6	685.7	1524.8	1604.5	657.7	1596.2	518	647.6	1476.9	1418.7	923.1	1086.6	1563.1	2129.5	2324.3	1053.2	1360	2404.3	1435.7	1860.6	1240.9	971.8
200947_s_at	GLUD1	2746	956.3	1005	1440.8	1087.3	1909.9	1201.3	930.7	909.5	788.4	1025.1	1271.8	1103	1821	662.2	739.2	1185.4	1526.6	1142	1183.1	1676.2	2086.7	2850.8	1303	1653.9	1629	1613.7	2043.9	1423.1	1272.9
200948_at	MLF2	8079	1793.7	2769	2632.9	2015.7	1229.4	1798.5	1835.7	1963.6	3224.6	1905.4	2122.1	1922.9	1368.8	2256.3	3671.9	2479.4	2744.1	2122.1	2339.7	2452.5	1366.3	3870.1	2006.1	3317.3	2721.9	1468.8	1951.6	1605.8	4483.6
200949_x_at	SNORD54///RPS20	26795///6224	11519	13804	17040	11323	18486	19085	14523	13911	11059	21439	15945	14972	12940	22418	14943	24247	13847	14060	15146	20297	10392	19558	12903	8701.7	9775.1	17692	12538	15732	28638
200950_at	ARPC1A	10552	4308.7	4952.8	3330.3	3421.8	1893.6	2677.9	4024.7	2877.8	2878.5	3687.2	1972.9	2023.8	2698.9	1409.3	3120.4	2082	4051.1	3426.2	2718	3101.6	1863.3	10093	4482.5	2561.6	2924.6	2022.9	2816.6	2069.7	3525.4
200951_s_at	CCND2	894	9.5	9.7	9.8	4.4	1123.4	5.5	7.3	4.1	9.3	8.4	8.4	3.3	213	32.2	74.4	232.9	7.8	9	222.8	4.9	19.6	13.2	2.9	4	5.3	9.9	17.1	12.5	4.9
200952_s_at	CCND2	894	11.4	5.9	5.7	18.5	471.7	10.1	8	13.8	7.7	9.6	4.1	7.8	190.6	92	77.1	139.8	35.6	37.3	231.4	9.7	39.8	34.7	12	10.2	18.5	11.9	23.1	32	16
200953_s_at	CCND2	894	40.7	35	27.4	61.8	3996.2	40.2	29.6	41.8	62.2	31.5	42.5	78.3	1393.1	361.9	525.9	1594.6	59.1	96.1	1265.4	68.1	352.5	197.9	72.4	52.3	73.1	54	87.8	126.5	99.3
200954_at	ATP6V0C	527	839.5	1209.3	761.1	734.1	473.3	536.8	1309.2	1189.9	870.3	225.7	749	701.4	619.6	603.1	1213.9	756.7	833.5	507.8	882.6	795.8	571	1007.3	601	749.1	544.4	596.9	733.9	602.6	1946
200955_at	IMMT	10989	1681.9	3378.8	3123	2573.7	1986.3	2391.5	1778.9	2315.5	4045.7	1726.6	2816.8	1792.1	1855.8	4908.7	3606.3	2063.8	2040.5	1848.3	1767.3	990.6	1400.7	909.3	1586.9	1419.5	1419.9	1451.7	2080.9	2347.8	1857.3
200956_s_at	SSRP1	6749	2163.4	3151.1	3941.3	2900.6	2208	3237.5	2447.9	2763.7	3272.5	3064	2007.5	977.7	2445	3135.1	3243.9	2412.6	1370.1	2124.5	3228.2	4322.4	2355.9	2782.9	2138.8	1711.4	1666.7	2275.3	2415.4	2605	672.7
200957_s_at	SSRP1	6749	1218.9	2190.7	2725.1	2090	1718.4	2104.8	1835.1	1603.9	1892.3	1871.4	1172.4	550.7	1272.2	1478.7	1911.2	1189.5	786.9	1247.5	2016	2692.3	1862.8	2349.9	1355.4	754.2	1086.9	1270	1689.5	1756.3	677
200958_s_at	SDCBP	6386	3835.5	1028.9	3222.6	2920.8	1677.1	3462.8	3269.4	1793.2	1212.9	1945.8	3850.8	2767.9	4989.4	2705.6	2455.5	2611.5	1878.3	4396.3	1485.6	2316	1147.1	4225.3	3408.9	2178.2	2480.7	1353.6	3288.7	1760.8	2340.1
200959_at	FUS	2521	2148.7	2723.9	2485.8	2102.2	2761.6	2510.1	2360.4	2523.9	3358.3	2251.3	1745.9	1383.4	2100.3	944.3	1458.4	2518.3	2342.9	1763.3	3829.9	4183.4	2020.6	598.1	969.7	1456.7	1904.2	1295.1	1154	2664.8	1329
200960_x_at	CLTA	1211	4670.3	3226.1	5886.4	7409.4	4803.9	5503.3	6885.8	3734.6	4417.6	5699.7	5165.9	2729.9	5073.6	2708.6	3218.9	5220.8	4522.9	4965.1	3663.1	3928	3936	4669.1	7536.6	7564.7	6192.5	3615.6	4586.7	5403.8	4872.9
200961_at	SEPHS2	22928	1663.4	1442	1704.7	1625.4	1435.3	720.6	786.7	1087.4	681.1	1183.6	1348.1	1058.9	960.2	4275.4	2545.8	2687.3	1635.4	712.8	1162.9	839.5	1134.1	1290.1	1246.5	3749.9	5987.1	2260.9	1160.3	1095.5	3045.3
200962_at	RPL31	6160	357.9	563.9	181.8	185.9	251.4	202.9	119.4	261.6	538.7	1051.3	1251.1	772.8	1015	2985.7	1379	1546.3	640.3	274.8	498.5	1195.8	361.7	880.5	156.8	338.4	403.4	1546.5	82.2	708.7	1295.1
200963_x_at	RPL31	6160	22430	20970	18213	15435	28045	27912	14750	20928	20555	28703	20978	23812	19591	39469	24593	31226	18308	10320	16344	22835	15568	22472	21337	17903	17986	33499	21412	25102	30884
200964_at	UBA1	7317	1434.9	3155.9	4489.6	4528.8	3731.4	3167.3	5896	8484.6	4900	2568.6	3744.9	7642.6	6059.5	11146	9164.6	3384.7	3297.3	4982.9	2815.9	2966.8	2731.5	2827.9	4547.1	2931.6	1646.7	2242.4	2653.5	3794.3	8137.7
200965_s_at	ABLIM1	3983	550.2	794.1	65.5	1393.9	881.9	1535.2	1545	1682.7	147.8	104.8	3370.1	1011.7	1367.4	1553	1951.8	84.3	333.2	496.1	245.2	66.3	1580.3	1199.3	1637	1791.9	829.4	967.8	2075.6	2030.9	644
200966_x_at	ALDOA	226	14807	13103	13260	14129	15870	10330	16539	10495	9864.5	11255	10647	19192	6683.5	5723.9	11707	11702	10900	4415.6	9668	9094.8	9517.1	23975	15452	18157	18042	11316	17393	11312	14060
200967_at	PPIB	5479	4792.8	2528.1	4852.7	4815.6	5897.1	3959.6	6307.6	2925.9	2189.4	6061.4	9490.7	9855.7	3927.9	5407.9	4821.9	6621.6	5497.6	4402.9	2837.3	2917.6	4567.6	12191	3428.6	3309.3	3829.2	8027	6040	3688.1	11261
200968_s_at	PPIB	5479	4882.8	2333.1	4456.4	5261.1	6617.4	4811.5	7486.8	2660.7	2093	6902.2	11546	12683	4828.1	5717.1	5018.1	7214.3	5593.6	4865	2949.6	3490.6	5384.8	16889	3834.6	4255.4	4861	10171	8662.9	4717.1	16992
200969_at	SERP1	27230	1332.1	1539.2	876.6	770.2	1672.6	587.2	792.8	1570.7	694.2	814.2	1073.9	516.4	707	743.4	519.5	1138	610	1196.9	1018.2	688.2	2003.7	935.2	955.7	772	879.2	1018	830.7	910.6	683.2
200970_s_at	SERP1	27230	1707.2	2557.1	1044.3	1196.6	2174.2	1342.2	1129.8	2053.7	876.3	1372.8	1608.5	932.4	1180	1331.4	935.9	1401.1	840.2	1183.7	1470.8	1027.3	2375	1551.3	1059.2	1288.3	1355.4	1996.9	1596.1	1293.4	1138.5
200971_s_at	SERP1	27230	6392	6696.8	3723	3741.7	8095.3	3364	4447.3	5326.4	2287.7	4692.1	4826.1	3748.1	3053.2	3110.8	2519.4	3662.3	2050.5	2729.8	3268	2279.5	4913.4	5119.8	3605.3	4479	3899.7	4915.4	5269.1	3640.9	5417.4
200972_at	TSPAN3	10099	2302.9	2627.8	1613.9	4343	2510.5	3480.2	2069.9	3750.3	2712.2	2885.3	3686.3	1718	1869.7	1489.9	1833.7	1410	1230.4	3458.8	4026.9	3173.8	3461.4	2160.1	5261.7	1788.4	2350.2	2606	5251.7	3670.7	1481.2
200973_s_at	TSPAN3	10099	1207.1	1635.5	1103.8	3071.2	1615	2960.7	1250.8	2347.3	1784.1	2243	2787.9	864.3	1441.3	860.2	1188.4	707.4	584.6	2609.3	2727	2308.5	1913.9	1381.9	3805.3	1218.6	1582.3	1327.6	3782.7	2654.9	721.6
200974_at	ACTA2	59	128.2	85.2	98	366.5	622.4	164.1	98.3	76.6	137.4	2975.2	264.1	313.6	259.5	191	120.7	186.4	104.8	119.1	133.1	170.6	120.3	400.2	208.2	178.2	155.4	204	217	105	191.9
200975_at	PPT1	5538	3127.8	2932.6	4535.8	1607.8	2583.5	2897.5	2073.1	2019.8	2847.3	4075	1739.6	2915.9	2784.3	4542.9	4583.8	2026.1	2120.5	907.8	2440.6	2882.6	3466.1	2434.2	1885.6	4913.5	4164.7	2326.6	4195.4	4087.5	2329.5
200976_s_at	TAX1BP1	8887	3236.8	1452.4	831.2	1506.6	1736	1319.7	1453.1	1046.9	1385.5	2194.5	1815.6	2695.1	3293.9	1951.2	1472	1722.1	3029.9	2891.1	863.5	1047.1	3486.7	980.1	3341.8	2345.6	1795.1	1741.9	3642.1	906.9	1066
200977_s_at	TAX1BP1	8887	3243.4	1705.6	1292.3	1603.4	1563.9	1229.6	1084	1013.8	1325.2	1795.7	2331.1	2734.4	2989	1952.8	1965	1965.3	3759.2	1885.7	1022	1404	3277.3	887.1	3287.5	2152.9	1585.7	1926.9	3086.6	985.8	795.1
200978_at	MDH1	4190	7035.7	6915.4	7292.7	5787.2	8569	6725.3	7542.6	6723	7464.3	7408.8	7008.8	4450.9	4639.4	7330.9	7083.9	7313.6	3612.2	4398.2	4764	4827.8	8298.1	1538.4	3332.1	6180.9	5165.7	4758.1	10085	7096	4388.2
200979_at	PDHA1	5160	228	324	338.9	662.4	424.5	299.5	308.5	653.3	633.5	259.6	898.1	258	470.9	332.2	434.5	445.1	519.1	683.8	331.7	415	535.6	436.8	260.8	275.9	256.6	1110.1	237.4	714.6	414.6
200980_s_at	PDHA1	5160	1294.2	1778.5	3443.2	3499.2	2811.7	2116.9	3247.6	3870.9	4179.6	3301.8	5611.1	2737.7	4007.3	2552.7	2670	3252.6	3677.1	2565.7	2018.4	2922.7	2615.5	2311.3	1665.7	3441.9	2887.3	2919.1	2298.2	4509.7	2567.8
200981_x_at	GNAS	2778	10805	8416.9	10458	12095	11654	12481	15460	20525	21445	19132	11443	12555	12244	11643	15628	12620	13009	33440	21094	23347	18502	17737	11912	17185	17531	16561	19856	17228	31286
200982_s_at	ANXA6	309	525.3	10.8	2134.1	486	2795.6	101.9	11.5	186.4	2224.6	1456.8	934.4	2818.5	2344	879.3	855.6	1254.1	228.9	433.5	479.5	1332.6	92.9	1098.1	252.8	117.2	46.3	1325.9	73.4	1008.3	3935.4
200983_x_at	CD59	966	7008.9	665.7	6315.7	5586.5	3943	1199.1	2508.3	1417.9	733.1	2033.4	3375	7776.6	7331.1	1016.5	1319.1	1015.8	3654.1	2247.7	828.8	1136.8	1660.4	4000.2	9084.7	3293.4	2164	3494.4	6989.2	2104.9	1439.2
200984_s_at	CD59	966	4968.9	508.3	3883.7	3652.1	2617.4	768	1731.4	850.9	531.1	1177.8	2211.3	3029.9	5094.9	839.9	810.3	871	2397.8	1465.9	530.1	498.8	1128.1	2037.1	5174.3	1980	1197.2	2278.6	4190.8	1227.4	753.8
200985_s_at	CD59	966	5033.6	486	3825.7	3738.2	2106.5	870.3	1353.1	632.1	450.4	1175.3	1974.3	3229.9	4971.6	702.9	568.6	753.7	1963.1	1009.6	415.5	458.9	1133.2	1876.7	5099	1348.3	676.7	2223.3	3435	961.9	680.8
200986_at	SERPING1	710	44.5	26.4	5.7	50	34.7	47.6	21	7.3	16	41	19.7	557.7	165.8	768.9	962	38.1	34.3	25	30.9	83.6	592.8	65.7	5.5	50	42.5	75.1	33.2	2.4	308.3
200987_x_at	PSME3	10197	1600.1	1973.3	1843.9	2278.4	1349	2193.4	1909.9	2759.1	1458	2832.6	950.7	596.2	1344.9	903.7	1484.4	2307.3	1454.2	1395.9	3106.8	2704.7	1225.4	761.2	1646.7	2066.3	2459.9	1527.4	2033.6	2170.3	839.3
200988_s_at	PSME3	10197	427	868.1	574.3	934.7	427.6	637.2	426.6	1345.5	573	687	322.8	90.5	267.9	259.1	386.3	940.9	238.7	499.5	1268.8	1035.2	665.8	314.6	571.5	496.5	616.9	376.5	594.8	1044.9	148
200989_at	HIF1A	3091	3551.2	1916.8	7105.6	3924.1	2719.6	2721.5	4276.6	2464.4	2426.7	1918.3	6507.9	5120.6	4530.5	1801.9	1958.4	1908.6	1427.9	3409.9	2963.5	2364.3	3366.4	9319.9	6229.4	3885.3	4316.5	5589.1	4946.8	2283.5	932
200990_at	TRIM28	10155	1502.4	3215.2	3309.5	6011.8	3957.3	3614.9	3284.2	5372.6	5248	2101.2	3387.5	2411.6	2382.6	1853.2	1949.6	3175.3	2600.1	2805.6	5692.1	4347.1	4660	5630.9	3181.4	3750.8	4556.4	2110.8	2438.5	1762.2	3945.9
200991_s_at	SNX17	9784	764.8	391.5	755.9	1769.9	800.2	1110.4	434.8	745.8	684.4	1822.8	1175.6	1063	794.4	916.9	900.7	775	830.7	595.5	879.1	667.9	2014.8	3457.8	679.6	1518.4	978.9	781.2	1055.4	781.8	2861.5
200992_at	IPO7	10527	2280.6	2896.9	2145.9	3751.5	2517.4	2851.7	3400.4	3407.3	3524.6	2920.2	4923.8	2101.9	5228.6	5482	3184.6	5334.3	3283	1533.1	3590.8	4419.8	2342.7	1451.4	3799.4	1606.1	3384.6	5733.6	2985	3994.6	2504.3
200993_at	IPO7	10527	1336.7	2350.4	1451.2	2940.9	1802.2	2590.5	2084.1	2673.5	3214.3	2573.1	3859.6	2103.1	4650.7	4642.6	2616.7	3741.9	2662.7	1298.5	3070.5	4246	2175.7	831.3	2566.8	1189.4	2002.5	4232.4	2248.3	3139.4	1599.3
200994_at	IPO7	10527	874.9	1785.8	1089.5	2392.4	1336.2	1460	1467.3	1820.6	2012.3	2027.8	2791.5	1229.4	2943	2436.6	1533.6	2667.1	1694.2	860.7	1931.1	2300.4	1331.7	831.2	1703.7	615.2	1099.6	3345.4	1450.7	2197.7	1094.9
200995_at	IPO7	10527	438.3	605.8	597	1175.8	724.1	616.5	496.8	835.2	1485.6	888.9	1436.1	768.5	1945.3	1428.8	991.7	1459.9	823.9	353.6	1192.8	1580.3	930.6	288.2	676.2	362.6	712.6	1585.9	524.7	1171.6	325.2
200996_at	ACTR3	10096	4354.1	2201.2	4644.1	3253.5	4952.2	6626.3	3024.1	2999.1	2731.4	3854.3	2109.5	2224.4	3953	3102	4019.1	3841.8	5970.3	2085.9	2064.6	2230.5	2202	1232.6	3505.5	5853.1	5126.8	1619.6	3655.8	2105.6	1974.6
200997_at	RBM14-RBM4///RBM4	100526737///5936	1897.3	2883.2	2658.5	1588.5	1385.5	3587.5	1971.2	1988.2	2187.4	2900.2	1300.5	1053.8	1212.3	1309.8	3159.3	2955.9	904.6	1358.8	2448.8	1645.1	1590.7	2060.9	2078.8	1459.6	1297.1	1271	2134.7	1575.4	979.5
200998_s_at	CKAP4	10970	2506.6	859.7	1919.5	2747.9	381.1	3387.9	1191.4	1848.7	2557.9	2232.3	3827.7	4269.8	4702.6	2778.8	2667.1	1533	5273.1	2772.5	2531.9	3669.1	1937.1	7852.9	1667.3	4537	4059.4	3320.3	2236	2609.2	4845.3
200999_s_at	CKAP4	10970	2441.2	755.8	2418.1	2721.4	444.1	3203.3	1382.8	2170.4	4018.7	2896.8	3566.2	5001.1	4284.7	2306.6	2514.2	1531	5009.7	2532.5	2565.3	3616.5	2209.4	7634.2	1467.1	4371.2	3581.7	3063.4	1911.1	1892.3	4249.1
201000_at	AARS	16	2592	3802.1	3486	3670.1	2733.5	1709.3	3309.1	1386.4	1852.3	2585.4	2947.7	3271.5	5541.6	4360.4	3200.4	2943	3258.8	2773.8	4221.1	5123.3	4332.3	11266	2970.5	5069.6	5240.9	11292	3336	4824.7	17591
201001_s_at	TMEM189-UBE2V1///TMEM189///UBE2V2///UBE2V1	387522///387521///7336///7335	1421	893.6	1239.9	1130.3	1225.3	580.4	715	1313.6	944	779	1397.1	1073.9	1628.4	921.4	1520.6	1232.3	1415.7	1308.8	1299.7	985.8	1433.3	734.1	924.2	1370.6	1091.1	901.5	1743.8	844.2	708.6
201002_s_at	TMEM189-UBE2V1///TMEM189///UBE2V2///UBE2V1	387522///387521///7336///7335	1863.1	1466.3	1482.1	1897.6	1687.8	941.7	1093.9	2200.9	1413.7	721.2	2006.1	1540.6	1827.2	1151.7	2278.8	2285.8	1807.6	2108.2	2029.8	1847.8	2017.9	1717.7	1235.1	1648.8	1756.9	1683.6	2267.3	2008.3	1625.8
201003_x_at	TMEM189-UBE2V1///TMEM189///UBE2V2///UBE2V1	387522///387521///7336///7335	1259.1	2109.9	1197.9	2156.8	1815.8	1923.1	1065.8	1668.2	1597.5	863.8	1963.6	2192.6	1762.2	894.1	1656.1	1335.1	2158.7	1395.3	1443	2137.7	2882.3	2099.2	1625	2680.4	2080	1814	1803	2807.1	3105.6
201004_at	SSR4	6748	6414.3	6842.2	2609.2	4337.2	5744.4	3072.7	3720.7	6318.8	3096.7	5540.7	7130.6	5015.2	3249.4	3715	3058.5	5877.8	4880.3	3672.9	2301.4	2826.1	6217.1	8404	9454.5	3595.6	5596.9	7501.9	7405.8	6418.6	9137.6
201005_at	CD9	928	5446.9	1050.1	4035.1	1755.9	835.6	1467.8	10.4	11.5	2.6	5.5	2831.4	3048.7	6368	849.5	1224.6	5920.6	10015	600.1	7.7	3.1	5117.5	6184.3	7611.5	8749.9	6734.2	2788.7	6402.8	3.7	2835.6
201006_at	PRDX2	7001	231.1	91	16.5	20.2	213.2	302.4	136.1	220.6	193.2	293	8.2	188.4	191.9	297.5	193.7	219.5	172.4	270.2	175.6	237.8	189	293.1	194.1	253	179.7	308.3	156.9	223.1	339
201007_at	HADHB	3032	2352.5	1840.5	3185.8	2636.3	1847.2	1831.4	1663.1	1033.8	993.6	3467.5	2699.7	3868.9	2415.8	3901.8	3263.4	4284	3641.8	1472	2006.1	3683.9	3275	3576.1	2058.4	6347.6	3421.5	3114.3	4447.6	1965.2	3918
201008_s_at	TXNIP	10628	1580.3	1932.8	8.8	61.7	1202.7	910.4	2811.6	573.5	394.7	1074	280	477.9	2997.6	19.3	37	952.8	2576.2	2409.9	2021.1	583.7	42.8	4647.5	2223.6	65	45.9	228	1421.6	1123.2	94.3
201009_s_at	TXNIP	10628	1434.7	2021.5	19	188.8	1127.5	955.9	2350.9	650.4	525.6	1054.7	340.2	686.6	3197.6	258.1	129.7	891.9	2225	1853.1	1764.8	810.3	134.5	4582.9	2304	177.1	124.8	397.5	1401.4	1158.1	194.2
201010_s_at	TXNIP	10628	1378.5	1983.1	91.9	225.3	1316.8	1252	2433.4	816.4	619.1	980.8	373.7	800.5	3083.6	123.6	74.7	1043	2584	2196	1928.6	894.7	116.2	6148.9	2590.1	164.6	220	304.5	1474.6	1100.1	224.6
201011_at	RPN1	6184	2278.4	1550.8	1914.3	1091.4	1539.6	1217.5	1728.6	1906	1105.2	2226.6	1374.3	1203.3	1261.4	1362.7	933.8	1775.8	977.4	1049.8	1122.8	1170	1584.8	2961.8	1904.9	1165.9	1217.2	1795.7	2529.4	1529.8	3005.3
201012_at	ANXA1	301	9726.9	39.4	198.6	11546	1543.5	3889.5	47.7	33	50.3	226.6	14176	10084	5618.2	16506	12284	1957.4	6720.5	1020.4	46.4	178.3	7928.4	11146	9388.1	9478.8	5756	8430.1	7629.9	49.8	10923
201013_s_at	PAICS	10606	2563.8	7483.7	4499.1	3557.8	5144.5	5038.9	4211.1	6897.3	5991	4984.2	2839.7	1222.6	1423.6	4376	5079.2	5807.6	2733.1	2679.2	5803.7	5912.9	1374.8	1497.3	3080.2	1311.9	2566	3741.9	3064.4	3720	2223.8
201014_s_at	PAICS	10606	3345.7	7763.5	5201.9	3228	6442.3	4958	6875.8	6583.8	5041.5	7585.4	2569.8	1123.8	1472.9	4200.8	5010.8	4853.8	3675.2	2224.1	6222.9	6415.6	1471.7	643.7	2865.7	1429.5	3982.2	3862.1	3026.6	3716.4	2342.9
201015_s_at	JUP	3728	1258.6	1883.9	98.6	578.4	581.5	1457.8	1155.2	1352.7	193.3	20.2	2606.8	841.1	336.5	1392.9	1402.9	808.9	4632.9	444.8	958.7	141.3	3344.9	2694.5	4308.3	4485.3	3162.4	2700.8	4238.8	12.2	1594
201016_at	EIF1AX	1964	630.4	719	1240.2	1366	1362.9	616.8	1284.1	1877.6	744.2	1024	637.3	420.7	638.3	512.5	714.1	634.8	623.6	409.4	592.4	346.5	428.7	337.1	618.2	649	490.1	663.7	301.5	292.6	109.2
201017_at	EIF1AX	1964	496.3	1209.6	779.2	1017.4	1224.2	980.8	933.9	2860.3	1479.5	785.9	1048.5	683.3	948.6	852.6	713.8	738.1	478.1	1266.3	1088.6	795.1	712.8	425.7	766.6	624.1	578.1	729.9	317.1	563.5	251.6
201018_at	EIF1AX	1964	380.1	1203.1	472.7	810.6	1404.2	1370.1	746.9	3321.8	1739.8	665.2	1189.5	659.5	922.8	1006	872.4	938.3	368.5	1471.8	1071	1002.2	933.8	511.9	744.9	462.8	535.6	1038.7	287.3	1362.4	501.8
201019_s_at	EIF1AX	1964	1429.2	2093	2486.2	2563.8	2923.1	1568.3	2819.4	4282.4	2172.4	2276.3	1529.5	1069.1	1363.3	1425.7	1528.6	1266.5	1272.3	1555.2	1598.6	1328.3	1247	843.4	1806.1	1455.5	1522.7	1705	881.7	1267.3	757
201020_at	YWHAH	7533	1468.9	868	1382.4	1292.7	1260	854.7	2596.6	1782.8	1755.8	1130.2	782.8	692.8	1031.2	916.4	1181.4	858.9	866.1	1350.3	1196.1	929.1	858.2	877.6	860.2	883.5	967.9	610.1	1039.7	744.6	645.1
201021_s_at	DSTN	11034	3983.5	2883.2	6999.3	6869	2339.3	2183.1	6541.6	6319.6	3856.8	2231	5093.4	2762.8	2648.2	2182.4	3515.2	2269	4157	5447	2454	1482.2	3971.7	3395.9	3839	2947.3	2675.8	2634.4	2627.3	3144.1	1504.7
201022_s_at	DSTN	11034	4882.5	3998.7	11740	11855	3240.5	3689.3	10748	10591	7070	3665.7	8626.4	6408.5	4985	3368.7	5173.3	4158.1	6713.8	10924	3771.8	2535	8675.4	10284	8735.6	6327.9	3515.2	4785.5	4793.1	6208.8	2427.2
201023_at	TAF7	6879	1568.5	2168.8	2566.6	1657.7	1670.9	2056.7	1850.8	877.6	1760.3	3505.5	1862.5	2248	1885.1	1192.3	1288.7	3362.3	1894.8	1281.4	2402.2	2189.9	1705.9	1670.1	2106.9	3170.8	3070.5	2218.9	1664.7	1430.4	1167.8
201024_x_at	EIF5B	9669	1456.7	1875.6	1688.5	1005.7	1702.7	1001.5	1070.2	1482.2	1167.2	1556.9	937.3	1105.2	1185.7	1981.3	2498.5	1586.6	1297.5	499.1	1461.9	1752.2	771.7	304.5	790.7	739.9	1330.7	1161.8	732.4	1459.4	345
201025_at	EIF5B	9669	324.1	490.8	435.6	371.8	421.7	452	346.8	766.3	576.9	383.3	286.7	243.2	460.5	614.4	779.5	359.1	411.4	216.1	503.9	594.6	352.7	138.4	275.4	358.4	539.2	394	248	575.5	177
201026_at	EIF5B	9669	228.3	221.5	294.5	267.2	389.4	208.4	179.3	249.5	224.8	194.6	182.2	289.1	297.8	574.3	528.8	251.1	317.5	232.4	357.8	490.3	274.1	163.9	304.4	369.9	598.3	275.3	313.6	474.6	274.5
201027_s_at	EIF5B	9669	790.3	820.5	896.5	666.3	801.1	896.9	502.3	1068.4	773	1022.1	545.7	705.5	817.7	1255.7	1348	788.9	743.3	357.9	754.1	1033	645.2	232.4	530.9	563.4	786.3	644.1	489.3	977.4	413.7
201028_s_at	CD99	4267	1861.6	33.2	3515.7	1767.2	1616.1	125	994.4	34	724.1	1380.6	1410.3	7117.7	2893.7	852.6	992.1	3283.2	1293.7	86.5	646.4	3161.2	1181.5	1240.6	1321.1	1888.8	1005.8	1168.2	118.3	1172.2	5852.1
201029_s_at	CD99	4267	3198.9	93.2	6611.6	3851.4	2878.7	242.5	1920.1	131.8	1611.1	2682.8	3380.7	13017	5157.3	1441	2053.6	5447.8	2821.7	177.4	1519.1	5564.2	2959.3	3844	3000.1	3101.7	2251.8	1914.4	236.6	2269.3	9860.5
201030_x_at	LDHB	3945	12957	13316	15437	15088	18183	20098	11724	17449	16648	23241	16310	9299.5	11718	18724	16088	15990	10645	13514	16436	19203	9836.2	9271.7	16656	5117.1	3530.3	16658	16007	17682	8351.2
201031_s_at	HNRNPH1	3187	2193.1	2697.7	2646.4	2540.8	2773.3	2021	3373.3	2906.8	3127.1	2749.8	2416.5	2855.7	2576.9	2373.3	2139.2	2761.7	2485	2593.2	2538	2479.3	1818.3	1486.8	2904	2060.9	2422.4	2588.9	2292.3	2204.5	1931.9
201032_at	BLCAP	10904	2435.1	1563	657.4	967.3	1254	485.8	970.4	6499.4	1610.9	665.9	1217.1	778.9	1721.7	1047.8	1207.8	1776.2	4191.4	3279.8	2146.3	636.4	1723.7	2356.2	2075.5	3614.3	2720.5	2102.2	6997.6	2599.7	1355
201033_x_at	RPLP0	6175	24811	23942	22069	22337	30260	26937	26729	23351	24702	28753	24908	27079	20877	32918	22865	34759	22769	21846	22870	32006	20994	36908	30504	26246	29905	35218	32939	32256	43674
